5.070
5.070
5.070
5.085
5.065
5.040
5.025
5.030
5.020
5.010
4.995
5.005
4.995
4.960
4.940
4.935
4.950
4.935
4.925
4.915
4.935
4.905
4.915
4.910
4.920
4.910
4.915
4.905
4.920
4.910
4.900
4.905
4.910
4.910
4.895
4.890
4.900
4.905
4.895
4.890
4.900
4.900
4.890
4.865
4.865
4.885
4.875
4.865
4.870
4.885
4.865
4.850
4.850
4.860
4.860
4.845
4.840
4.850
4.855
4.825
4.820
4.850
4.840
4.830
4.820
4.840
4.850
4.840
4.820
4.825
4.830
4.830
4.825
4.830
4.840
4.845
4.840
4.835
4.855
4.840
4.835
4.825
4.840
4.845
4.845
4.840
4.845
4.845
4.845
4.845
4.855
4.865
4.850
4.835
4.855
4.860
4.860
4.845
4.840
4.860
4.865
4.855
4.855
4.880
4.865
4.865
4.865
4.880
4.885
4.880
4.870
4.900
4.910
4.930
4.970
5.070
5.390
5.800
5.735
5.405
5.295
5.300
5.320
5.315
5.355
5.365
5.365
5.365
5.370
5.360
5.370
5.375
5.380
5.360
5.330
5.245
5.165
5.110
5.020
4.885
4.820
4.815
4.850
4.865
4.860
4.825
4.780
4.750
4.745
4.760
4.770
4.765
4.755
4.765
4.765
4.745
4.730
4.725
4.715
4.720
4.735
4.750
4.755
4.755
4.755
4.760
4.770
4.765
4.750
4.755
4.765
4.750
4.735
4.730
4.750
4.750
4.735
4.735
4.750
4.745
4.740
4.735
4.750
4.745
4.745
4.740
4.755
4.760
4.755
4.760
4.775
4.790
4.795
4.795
4.815
4.835
4.850
4.860
4.870
4.895
4.895
4.915
4.925
4.965
4.965
4.975
4.980
5.000
5.005
5.000
5.005
5.000
4.995
4.975
4.975
4.965
4.970
4.955
4.945
4.940
4.945
4.940
4.920
4.920
4.930
4.925
4.900
4.895
4.905
4.895
4.875
4.875
4.875
4.875
4.870
4.875
4.900
4.900
4.885
4.870
4.880
4.890
4.875
4.870
4.885
4.880
4.855
4.860
4.855
4.860
4.850
4.830
4.840
4.855
4.850
4.850
4.865
4.890
4.890
4.870
4.865
4.875
4.885
4.880
4.880
4.885
4.880
4.870
4.860
4.870
4.870
4.845
4.830
4.820
4.835
4.825
4.830
4.820
4.835
4.810
4.800
4.800
4.810
4.810
4.795
4.780
4.785
4.790
4.790
4.785
4.785
4.795
4.790
4.785
4.795
4.805
4.795
4.780
4.775
4.800
4.805
4.810
4.810
4.820
4.815
4.810
4.800
4.810
4.820
4.810
4.800
4.810
4.810
4.795
4.810
4.825
4.830
4.825
4.815
4.820
4.825
4.815
4.820
4.825
4.865
4.870
4.890
4.970
5.160
5.605
5.950
5.725
5.370
5.260
5.255
5.265
5.270
5.270
5.265
5.265
5.280
5.260
5.240
5.250
5.295
5.280
5.250
5.200
5.180
5.055
4.965
4.875
4.790
4.685
4.635
4.665
4.715
4.740
4.730
4.715
4.685
4.710
4.720
4.725
4.730
4.760
4.775
4.755
4.735
4.735
4.730
4.720
4.735
4.745
4.765
4.750
4.755
4.750
4.760
4.755
4.760
4.765
4.780
4.765
4.755
4.755
4.775
4.770
4.765
4.760
4.770
4.785
4.790
4.775
4.770
4.790
4.790
4.805
4.800
4.820
4.815
4.830
4.870
4.890
4.890
4.890
4.905
4.925
4.925
4.925
4.930
4.950
4.970
4.965
4.965
4.975
4.985
5.010
4.995
4.990
4.995
4.995
4.980
4.980
4.970
4.960
4.955
4.970
4.985
4.955
4.920
4.915
4.935
4.935
4.935
4.910
4.915
4.915
4.905
4.905
4.905
4.905
4.895
4.890
4.910
4.910
4.910
4.900
4.900
4.920
4.910
4.900
4.900
4.915
4.895
4.885
4.875
4.880
4.895
4.895
4.900
4.910
4.880
4.855
4.860
4.885
4.910
4.910
4.885
4.880
4.880
4.860
4.855
4.855
4.875
4.860
4.850
4.865
4.870
4.865
4.845
4.850
4.865
4.855
4.855
4.850
4.865
4.860
4.865
4.855
4.860
4.860
4.845
4.820
4.840
4.840
4.825
4.825
4.825
4.865
4.865
4.860
4.870
4.880
4.880
4.870
4.880
4.900
4.890
4.875
4.870
4.875
4.875
4.865
4.845
4.860
4.850
4.825
4.820
4.835
4.845
4.835
4.830
4.825
4.840
4.835
4.825
4.825
4.835
4.820
4.820
4.825
4.845
4.855
4.845
4.845
4.875
4.900
4.945
5.040
5.435
5.850
5.705
5.315
5.225
5.265
5.275
5.300
5.310
5.405
5.425
5.430
5.440
5.470
5.490
5.505
5.515
5.525
5.510
5.435
5.350
5.290
5.185
5.035
4.925
4.925
4.935
4.935
4.905
4.880
4.835
4.775
4.735
4.725
4.750
4.725
4.700
4.700
4.720
4.700
4.680
4.665
4.660
4.660
4.670
4.680
4.695
4.700
4.695
4.685
4.710
4.725
4.705
4.700
4.710
4.715
4.705
4.680
4.670
4.700
4.700
4.685
4.685
4.700
4.680
4.675
4.680
4.695
4.695
4.690
4.685
4.710
4.705
4.710
4.710
4.750
4.765
4.760
4.770
4.795
4.810
4.820
4.825
4.830
4.870
4.870
4.875
4.895
4.920
4.920
4.930
4.920
4.940
4.940
4.930
4.925
4.935
4.935
4.925
4.905
4.925
4.935
4.920
4.905
4.910
4.905
4.900
4.890
4.895
4.910
4.900
4.885
4.875
4.905
4.900
4.885
4.890
4.900
4.890
4.890
4.880
4.900
4.895
4.885
4.880
4.890
4.900
4.890
4.880
4.890
4.890
4.890
4.880
4.875
4.890
4.880
4.880
4.880
4.895
4.890
4.865
4.880
4.880
4.880
4.875
4.870
4.875
4.865
4.860
4.855
4.865
4.865
4.860
4.850
4.850
4.865
4.850
4.835
4.835
4.855
4.845
4.840
4.830
4.860
4.850
4.835
4.830
4.845
4.845
4.830
4.830
4.840
4.835
4.830
4.835
4.830
4.835
4.830
4.830
4.830
4.840
4.825
4.825
4.825
4.835
4.835
4.825
4.835
4.845
4.845
4.830
4.825
4.835
4.835
4.825
4.820
4.830
4.850
4.840
4.835
4.840
4.845
4.840
4.830
4.840
4.850
4.870
4.905
4.915
5.090
5.455
5.900
5.790
5.420
5.295
5.305
5.315
5.335
5.350
5.355
5.350
5.335
5.325
5.325
5.325
5.325
5.310
5.265
5.175
5.115
5.050
4.940
4.825
4.795
4.850
4.890
4.895
4.880
4.850
4.790
4.735
4.730
4.745
4.750
4.740
4.715
4.720
4.715
4.685
4.650
4.660
4.675
4.670
4.665
4.675
4.690
4.685
4.680
4.675
4.720
4.705
4.690
4.695
4.720
4.710
4.705
4.705
4.720
4.720
4.710
4.715
4.735
4.735
4.725
4.720
4.735
4.740
4.740
4.735
4.745
4.765
4.770
4.760
4.770
4.805
4.805
4.820
4.840
4.860
4.860
4.870
4.880
4.900
4.895
4.900
4.895
4.905
4.920
4.910
4.925
4.930
4.935
4.925
4.930
4.930
4.945
4.940
4.930
4.925
4.935
4.915
4.895
4.885
4.890
4.880
4.870
4.875
4.895
4.895
4.895
4.885
4.890
4.890
4.870
4.875
4.880
4.890
4.870
4.860
4.865
4.875
4.855
4.850
4.860
4.865
4.870
4.860
4.855
4.880
4.870
4.850
4.850
4.870
4.860
4.850
4.840
4.860
4.855
4.845
4.830
4.835
4.835
4.815
4.805
4.815
4.825
4.815
4.800
4.795
4.815
4.805
4.795
4.800
4.815
4.800
4.780
4.775
4.795
4.785
4.785
4.780
4.795
4.795
4.770
4.760
4.775
4.785
4.785
4.775
4.780
4.770
4.770
4.770
4.780
4.790
4.780
4.760
4.760
4.780
4.780
4.770
4.765
4.780
4.775
4.765
4.760
4.775
4.780
4.765
4.770
4.775
4.765
4.765
4.765
4.785
4.795
4.790
4.790
4.780
4.805
4.810
4.805
4.830
4.860
4.905
5.000
5.355
5.820
5.720
5.305
5.155
5.205
5.215
5.205
5.190
5.210
5.205
5.170
5.150
5.160
5.155
5.120
5.070
5.050
4.955
4.850
4.755
4.650
4.540
4.490
4.505
4.580
4.620
4.630
4.620
4.620
4.650
4.675
4.705
4.740
4.755
4.745
4.710
4.675
4.675
4.685
4.695
4.690
4.690
4.710
4.720
4.720
4.715
4.710
4.710
4.690
4.685
4.695
4.705
4.695
4.675
4.695
4.715
4.715
4.700
4.710
4.705
4.700
4.700
4.715
4.730
4.735
4.730
4.730
4.750
4.745
4.750
4.780
4.805
4.815
4.820
4.840
4.860
4.865
4.870
4.895
4.930
4.925
4.910
4.910
4.930
4.950
4.960
4.965
4.985
4.995
4.975
4.965
4.960
4.975
4.955
4.935
4.940
4.935
4.915
4.895
4.885
4.895
4.900
4.885
4.875
4.870
4.860
4.840
4.835
4.850
4.850
4.835
4.835
4.830
4.845
4.825
4.820
4.815
4.820
4.820
4.810
4.820
4.835
4.825
4.815
4.815
4.820
4.815
4.800
4.800
4.815
4.815
4.800
4.785
4.785
4.785
4.795
4.780
4.785
4.780
4.765
4.770
4.770
4.775
4.775
4.760
4.770
4.770
4.760
4.750
4.760
4.765
4.770
4.755
4.745
4.755
4.755
4.750
4.745
4.750
4.755
4.745
4.735
4.745
4.745
4.730
4.720
4.725
4.745
4.735
4.720
4.725
4.735
4.730
4.710
4.710
4.720
4.725
4.720
4.715
4.725
4.725
4.725
4.715
4.735
4.730
4.715
4.705
4.720
4.725
4.710
4.705
4.710
4.735
4.730
4.715
4.725
4.740
4.735
4.730
4.750
4.780
4.835
4.910
5.290
5.745
5.630
5.230
5.115
5.175
5.215
5.210
5.235
5.250
5.250
5.225
5.215
5.210
5.195
5.150
5.085
4.995
4.915
4.825
4.690
4.590
4.575
4.605
4.615
4.610
4.600
4.580
4.575
4.605
4.655
4.675
4.685
4.665
4.675
4.665
4.640
4.615
4.620
4.665
4.665
4.640
4.635
4.645
4.640
4.630
4.635
4.635
4.635
4.620
4.610
4.605
4.605
4.585
4.575
4.580
4.580
4.560
4.550
4.565
4.565
4.570
4.545
4.550
4.580
4.575
4.575
4.590
4.600
4.615
4.615
4.640
4.660
4.685
4.685
4.715
4.750
4.770
4.780
4.800
4.830
4.850
4.860
4.875
4.885
4.915
4.910
4.900
4.905
4.925
4.920
4.915
4.915
4.900
4.890
4.875
4.880
4.880
4.860
4.850
4.840
4.855
4.850
4.825
4.825
4.825
4.835
4.815
4.805
4.820
4.820
4.810
4.800
4.805
4.815
4.810
4.785
4.805
4.815
4.800
4.780
4.795
4.800
4.800
4.785
4.780
4.795
4.800
4.780
4.785
4.785
4.795
4.775
4.780
4.775
4.780
4.760
4.760
4.760
4.770
4.760
4.760
4.750
4.760
4.760
4.745
4.750
4.750
4.740
4.745
4.750
4.755
4.755
4.745
4.735
4.735
4.745
4.735
4.730
4.740
4.750
4.745
4.725
4.725
4.745
4.740
4.725
4.735
4.735
4.735
4.720
4.725
4.735
4.730
4.720
4.725
4.735
4.745
4.730
4.720
4.740
4.740
4.745
4.735
4.740
4.740
4.750
4.735
4.740
4.745
4.745
4.745
4.750
4.790
4.800
4.855
4.965
5.330
5.765
5.625
5.250
5.140
5.190
5.205
5.190
5.190
5.205
5.195
5.175
5.170
5.180
5.160
5.120
5.100
4.975
4.875
4.775
4.665
4.580
4.535
4.555
4.615
4.640
4.640
4.615
4.610
4.625
4.645
4.685
4.720
4.720
4.700
4.670
4.655
4.655
4.660
4.675
4.665
4.670
4.690
4.675
4.665
4.675
4.680
4.680
4.665
4.690
4.710
4.705
4.690
4.685
4.715
4.720
4.715
4.715
4.705
4.715
4.700
4.695
4.690
4.695
4.665
4.640
4.640
4.650
4.660
4.645
4.660
4.660
4.675
4.675
4.685
4.705
4.710
4.715
4.715
4.740
4.765
4.765
4.790
4.815
4.825
4.830
4.830
4.850
4.860
4.840
4.825
4.830
4.845
4.830
4.810
4.805
4.825
4.825
4.805
4.800
4.805
4.790
4.775
4.770
4.780
4.780
4.765
4.765
4.780
4.780
4.770
4.775
4.785
4.795
4.795
4.775
4.770
4.765
4.755
4.740
4.755
4.770
4.760
4.735
4.735
4.750
4.735
4.715
4.715
4.725
4.740
4.725
4.725
4.725
4.725
4.720
4.720
4.730
4.730
4.720
4.695
4.700
4.715
4.715
4.705
4.715
4.720
4.715
4.690
4.700
4.710
4.710
4.700
4.705
4.710
4.700
4.685
4.695
4.700
4.710
4.705
4.700
4.715
4.720
4.705
4.685
4.675
4.695
4.675
4.675
4.670
4.700
4.690
4.690
4.690
4.705
4.715
4.705
4.690
4.715
4.715
4.705
4.700
4.695
4.705
4.695
4.690
4.710
4.715
4.710
4.705
4.700
4.725
4.720
4.715
4.735
4.755
4.760
4.760
4.800
4.875
5.095
5.550
5.795
5.490
5.150
5.100
5.130
5.150
5.160
5.150
5.155
5.155
5.125
5.095
5.075
5.070
5.060
5.025
4.975
4.905
4.815
4.710
4.585
4.470
4.420
4.420
4.470
4.490
4.505
4.510
4.495
4.500
4.545
4.590
4.625
4.660
4.675
4.660
4.635
4.615
4.620
4.665
4.670
4.660
4.680
4.695
4.690
4.680
4.695
4.705
4.705
4.685
4.675
4.700
4.710
4.710
4.715
4.715
4.705
4.690
4.700
4.715
4.720
4.695
4.685
4.680
4.710
4.720
4.720
4.730
4.750
4.760
4.755
4.770
4.795
4.800
4.785
4.785
4.780
4.795
4.815
4.855
4.880
4.885
4.860
4.850
4.865
4.895
4.895
4.875
4.860
4.865
4.865
4.875
4.885
4.880
4.870
4.880
4.905
4.915
4.895
4.875
4.860
4.840
4.820
4.820
4.815
4.815
4.805
4.780
4.775
4.780
4.800
4.795
4.775
4.770
4.795
4.785
4.775
4.775
4.780
4.750
4.735
4.745
4.765
4.775
4.760
4.755
4.770
4.760
4.745
4.760
4.765
4.765
4.750
4.745
4.755
4.745
4.735
4.735
4.740
4.760
4.765
4.735
4.740
4.735
4.730
4.720
4.725
4.735
4.735
4.720
4.715
4.740
4.730
4.720
4.720
4.720
4.730
4.725
4.715
4.715
4.720
4.715
4.705
4.710
4.720
4.715
4.690
4.705
4.715
4.715
4.700
4.710
4.715
4.715
4.705
4.695
4.705
4.710
4.695
4.695
4.700
4.705
4.695
4.685
4.715
4.715
4.705
4.690
4.695
4.720
4.710
4.685
4.700
4.695
4.710
4.690
4.695
4.700
4.715
4.695
4.690
4.705
4.700
4.690
4.700
4.715
4.715
4.700
4.710
4.720
4.740
4.745
4.740
4.755
4.885
5.085
5.540
5.715
5.405
5.170
5.140
5.155
5.170
5.180
5.185
5.205
5.225
5.200
5.180
5.195
5.190
5.165
5.105
5.040
4.940
4.865
4.785
4.655
4.615
4.500
4.515
4.540
4.555
4.540
4.510
4.485
4.505
4.530
4.550
4.560
4.590
4.605
4.605
4.590
4.575
4.585
4.580
4.590
4.600
4.610
4.625
4.620
4.620
4.630
4.650
4.640
4.635
4.630
4.640
4.630
4.605
4.625
4.635
4.635
4.615
4.615
4.625
4.615
4.615
4.610
4.630
4.635
4.620
4.625
4.645
4.655
4.645
4.645
4.655
4.695
4.705
4.710
4.740
4.770
4.775
4.770
4.785
4.800
4.820
4.830
4.850
4.855
4.870
4.855
4.865
4.865
4.870
4.885
4.880
4.895
4.895
4.890
4.875
4.875
4.880
4.870
4.850
4.845
4.850
4.830
4.810
4.810
4.810
4.810
4.795
4.790
4.805
4.800
4.780
4.780
4.795
4.785
4.780
4.780
4.785
4.785
4.775
4.770
4.775
4.780
4.775
4.775
4.775
4.780
4.775
4.760
4.760
4.765
4.770
4.760
4.755
4.770
4.775
4.755
4.755
4.760
4.760
4.750
4.755
4.750
4.755
4.740
4.730
4.735
4.740
4.725
4.720
4.725
4.735
4.730
4.710
4.725
4.730
4.725
4.710
4.715
4.730
4.720
4.715
4.705
4.715
4.720
4.710
4.705
4.710
4.720
4.705
4.700
4.710
4.715
4.710
4.700
4.705
4.720
4.715
4.700
4.700
4.720
4.715
4.705
4.705
4.720
4.730
4.710
4.725
4.725
4.740
4.725
4.715
4.725
4.740
4.730
4.725
4.730
4.745
4.735
4.735
4.735
4.755
4.760
4.745
4.750
4.765
4.770
4.770
4.795
4.840
4.930
5.230
5.735
5.655
5.240
5.105
5.145
5.180
5.165
5.160
5.170
5.165
5.140
5.140
5.140
5.125
5.090
5.030
4.950
4.865
4.795
4.695
4.570
4.480
4.475
4.535
4.585
4.610
4.605
4.615
4.615
4.625
4.665
4.715
4.740
4.725
4.715
4.690
4.685
4.675
4.690
4.690
4.710
4.700
4.710
4.720
4.720
4.705
4.705
4.720
4.720
4.700
4.710
4.710
4.710
4.700
4.685
4.715
4.705
4.695
4.700
4.695
4.710
4.700
4.695
4.705
4.725
4.725
4.715
4.730
4.745
4.750
4.755
4.765
4.790
4.800
4.800
4.800
4.825
4.850
4.850
4.860
4.870
4.890
4.875
4.875
4.880
4.920
4.925
4.920
4.915
4.935
4.915
4.900
4.900
4.905
4.885
4.865
4.865
4.860
4.855
4.845
4.835
4.845
4.850
4.825
4.810
4.820
4.820
4.805
4.795
4.785
4.815
4.810
4.800
4.805
4.815
4.795
4.785
4.810
4.825
4.830
4.820
4.815
4.825
4.840
4.835
4.825
4.825
4.805
4.790
4.795
4.805
4.810
4.795
4.785
4.785
4.775
4.755
4.735
4.745
4.770
4.760
4.735
4.745
4.755
4.745
4.730
4.715
4.735
4.735
4.715
4.690
4.710
4.715
4.705
4.705
4.705
4.715
4.715
4.710
4.720
4.715
4.720
4.715
4.725
4.715
4.700
4.685
4.695
4.700
4.710
4.695
4.695
4.700
4.690
4.690
4.680
4.705
4.710
4.705
4.720
4.730
4.725
4.710
4.700
4.705
4.715
4.715
4.695
4.705
4.720
4.720
4.710
4.715
4.725
4.720
4.710
4.725
4.745
4.750
4.730
4.730
4.760
4.805
4.855
5.005
5.425
5.855
5.670
5.225
5.125
5.180
5.190
5.175
5.190
5.215
5.210
5.170
5.145
5.165
5.160
5.160
5.155
5.150
5.105
5.025
4.960
4.895
4.770
4.660
4.635
4.690
4.725
4.715
4.670
4.660
4.625
4.605
4.605
4.620
4.625
4.620
4.595
4.630
4.650
4.645
4.625
4.590
4.595
4.620
4.625
4.645
4.665
4.680
4.675
4.660
4.660
4.655
4.645
4.645
4.655
4.660
4.655
4.635
4.665
4.690
4.675
4.655
4.655
4.670
4.690
4.690
4.700
4.705
4.705
4.675
4.675
4.710
4.720
4.725
4.725
4.750
4.775
4.775
4.770
4.775
4.820
4.835
4.840
4.835
4.850
4.845
4.840
4.870
4.900
4.910
4.915
4.910
4.910
4.890
4.875
4.880
4.910
4.915
4.885
4.875
4.890
4.900
4.895
4.875
4.875
4.870
4.860
4.845
4.850
4.875
4.870
4.850
4.840
4.840
4.825
4.815
4.815
4.825
4.820
4.830
4.845
4.860
4.860
4.820
4.825
4.815
4.810
4.805
4.825
4.835
4.840
4.815
4.815
4.815
4.810
4.795
4.780
4.785
4.795
4.810
4.800
4.810
4.820
4.820
4.815
4.800
4.810
4.805
4.795
4.775
4.780
4.795
4.780
4.770
4.770
4.785
4.780
4.770
4.790
4.805
4.800
4.785
4.805
4.830
4.825
4.810
4.795
4.810
4.815
4.790
4.780
4.780
4.790
4.750
4.730
4.755
4.760
4.750
4.745
4.750
4.765
4.755
4.740
4.750
4.745
4.745
4.735
4.750
4.745
4.755
4.745
4.745
4.755
4.760
4.745
4.745
4.760
4.770
4.770
4.770
4.780
4.805
4.820
4.870
4.895
5.445
5.805
5.560
5.210
5.155
5.185
5.205
5.240
5.280
5.300
5.310
5.315
5.310
5.325
5.335
5.330
5.310
5.315
5.250
5.165
5.085
5.010
4.910
4.750
4.700
4.630
4.660
4.665
4.660
4.640
4.610
4.565
4.585
4.620
4.630
4.620
4.635
4.630
4.645
4.630
4.615
4.610
4.605
4.615
4.625
4.630
4.640
4.645
4.635
4.640
4.660
4.650
4.640
4.640
4.650
4.645
4.635
4.630
4.640
4.645
4.620
4.620
4.635
4.630
4.625
4.620
4.630
4.640
4.640
4.640
4.660
4.670
4.680
4.675
4.685
4.710
4.725
4.725
4.755
4.785
4.790
4.785
4.815
4.835
4.845
4.845
4.860
4.880
4.880
4.885
4.885
4.895
4.900
4.890
4.890
4.895
4.890
4.880
4.865
4.870
4.875
4.855
4.845
4.850
4.855
4.845
4.830
4.840
4.850
4.840
4.830
4.830
4.850
4.835
4.840
4.830
4.840
4.845
4.835
4.835
4.845
4.855
4.840
4.830
4.840
4.845
4.835
4.830
4.840
4.850
4.840
4.830
4.835
4.845
4.850
4.835
4.845
4.855
4.845
4.830
4.825
4.835
4.835
4.830
4.820
4.820
4.825
4.815
4.810
4.810
4.805
4.805
4.805
4.795
4.800
4.790
4.780
4.785
4.785
4.795
4.785
4.785
4.785
4.795
4.770
4.770
4.780
4.785
4.780
4.770
4.790
4.785
4.765
4.755
4.760
4.775
4.765
4.760
4.755
4.765
4.765
4.760
4.775
4.805
4.810
4.800
4.805
4.820
4.830
4.825
4.815
4.820
4.820
4.810
4.810
4.820
4.820
4.805
4.795
4.790
4.840
4.885
4.985
5.345
5.765
5.640
5.265
5.170
5.220
5.235
5.240
5.270
5.315
5.330
5.320
5.335
5.370
5.405
5.415
5.420
5.430
5.410
5.325
5.255
5.235
5.110
4.985
4.865
4.850
4.880
4.880
4.830
4.775
4.730
4.685
4.665
4.675
4.680
4.670
4.655
4.650
4.660
4.655
4.630
4.615
4.610
4.625
4.625
4.630
4.640
4.650
4.650
4.645
4.660
4.675
4.660
4.655
4.665
4.670
4.675
4.660
4.675
4.680
4.685
4.670
4.675
4.690
4.695
4.680
4.690
4.700
4.715
4.710
4.700
4.705
4.730
4.735
4.740
4.750
4.775
4.790
4.800
4.800
4.825
4.835
4.840
4.855
4.875
4.875
4.875
4.880
4.890
4.900
4.895
4.885
4.885
4.890
4.885
4.865
4.870
4.870
4.865
4.855
4.850
4.860
4.845
4.825
4.830
4.825
4.820
4.820
4.815
4.815
4.810
4.800
4.800
4.800
4.800
4.790
4.790
4.815
4.800
4.810
4.795
4.795
4.820
4.810
4.780
4.795
4.825
4.810
4.800
4.800
4.805
4.800
4.780
4.780
4.800
4.805
4.780
4.780
4.785
4.790
4.775
4.770
4.765
4.755
4.755
4.755
4.765
4.775
4.780
4.765
4.780
4.775
4.765
4.745
4.750
4.760
4.765
4.760
4.745
4.755
4.755
4.745
4.745
4.760
4.760
4.740
4.745
4.750
4.740
4.735
4.730
4.735
4.740
4.750
4.725
4.745
4.750
4.745
4.730
4.740
4.760
4.755
4.740
4.735
4.740
4.745
4.730
4.730
4.735
4.745
4.745
4.740
4.750
4.750
4.735
4.740
4.750
4.765
4.760
4.760
4.795
4.885
5.040
5.450
5.860
5.660
5.265
5.170
5.200
5.230
5.225
5.215
5.215
5.210
5.190
5.170
5.165
5.150
5.095
5.025
4.945
4.925
4.820
4.730
4.610
4.550
4.585
4.650
4.695
4.695
4.690
4.670
4.635
4.670
4.705
4.735
4.700
4.665
4.660
4.660
4.665
4.655
4.665
4.685
4.665
4.670
4.670
4.690
4.690
4.670
4.690
4.695
4.705
4.705
4.720
4.735
4.735
4.710
4.705
4.725
4.740
4.715
4.710
4.720
4.725
4.730
4.730
4.745
4.745
4.760
4.770
4.780
4.790
4.765
4.760
4.795
4.825
4.825
4.815
4.825
4.855
4.860
4.870
4.880
4.895
4.885
4.870
4.890
4.905
4.905
4.905
4.910
4.910
4.915
4.915
4.905
4.905
4.870
4.865
4.885
4.895
4.890
4.870
4.840
4.845
4.855
4.835
4.825
4.825
4.840
4.835
4.815
4.800
4.820
4.840
4.835
4.830
4.825
4.835
4.835
4.820
4.820
4.810
4.795
4.780
4.810
4.840
4.835
4.815
4.815
4.810
4.815
4.805
4.810
4.820
4.830
4.820
4.825
4.825
4.805
4.795
4.785
4.810
4.805
4.785
4.770
4.775
4.785
4.790
4.780
4.790
4.780
4.770
4.745
4.750
4.755
4.765
4.755
4.750
4.760
4.755
4.750
4.745
4.755
4.755
4.730
4.725
4.735
4.745
4.730
4.725
4.720
4.740
4.730
4.715
4.725
4.735
4.720
4.715
4.730
4.730
4.735
4.710
4.720
4.735
4.730
4.720
4.720
4.730
4.730
4.725
4.725
4.725
4.740
4.730
4.720
4.720
4.750
4.750
4.745
4.770
4.810
4.885
5.120
5.620
5.730
5.315
5.105
5.130
5.170
5.190
5.195
5.220
5.220
5.200
5.180
5.165
5.175
5.160
5.130
5.055
5.025
4.875
4.785
4.640
4.525
4.505
4.540
4.565
4.570
4.560
4.540
4.510
4.540
4.580
4.605
4.600
4.610
4.605
4.600
4.575
4.560
4.570
4.575
4.575
4.565
4.580
4.580
4.575
4.560
4.580
4.585
4.565
4.550
4.570
4.575
4.565
4.550
4.555
4.555
4.555
4.540
4.540
4.560
4.555
4.550
4.555
4.555
4.570
4.565
4.560
4.570
4.590
4.600
4.595
4.620
4.650
4.655
4.660
4.680
4.705
4.715
4.725
4.750
4.775
4.795
4.800
4.805
4.835
4.850
4.845
4.850
4.865
4.875
4.875
4.865
4.870
4.875
4.870
4.855
4.855
4.850
4.835
4.815
4.825
4.825
4.815
4.790
4.800
4.805
4.795
4.780
4.775
4.785
4.790
4.775
4.765
4.775
4.780
4.775
4.765
4.770
4.770
4.775
4.765
4.775
4.775
4.770
4.755
4.765
4.765
4.755
4.750
4.760
4.765
4.770
4.755
4.755
4.765
4.760
4.740
4.755
4.755
4.760
4.740
4.735
4.740
4.745
4.735
4.715
4.730
4.725
4.715
4.705
4.710
4.720
4.720
4.710
4.715
4.725
4.720
4.705
4.700
4.705
4.710
4.700
4.700
4.715
4.715
4.705
4.700
4.700
4.700
4.705
4.695
4.720
4.725
4.715
4.695
4.705
4.710
4.705
4.690
4.690
4.710
4.720
4.700
4.705
4.715
4.715
4.710
4.705
4.730
4.725
4.715
4.710
4.715
4.725
4.725
4.715
4.720
4.725
4.735
4.720
4.735
4.740
4.745
4.740
4.760
4.800
4.860
4.990
5.335
5.770
5.725
5.325
5.145
5.145
5.160
5.160
5.165
5.170
5.210
5.200
5.190
5.180
5.190
5.190
5.160
5.175
5.175
5.115
5.010
4.950
4.900
4.815
4.675
4.595
4.625
4.645
4.665
4.655
4.650
4.615
4.580
4.570
4.565
4.605
4.620
4.620
4.630
4.645
4.635
4.615
4.610
4.595
4.580
4.575
4.595
4.600
4.600
4.590
4.590
4.600
4.610
4.595
4.590
4.605
4.600
4.595
4.580
4.585
4.595
4.590
4.575
4.585
4.590
4.590
4.570
4.585
4.590
4.595
4.580
4.590
4.605
4.605
4.595
4.605
4.615
4.625
4.630
4.640
4.660
4.680
4.675
4.680
4.700
4.705
4.715
4.725
4.750
4.770
4.780
4.775
4.800
4.810
4.820
4.830
4.835
4.855
4.865
4.855
4.855
4.875
4.890
4.885
4.870
4.885
4.875
4.870
4.845
4.850
4.840
4.845
4.825
4.830
4.835
4.820
4.795
4.805
4.820
4.820
4.810
4.805
4.810
4.800
4.790
4.775
4.795
4.780
4.770
4.770
4.775
4.790
4.790
4.790
4.795
4.800
4.780
4.770
4.775
4.780
4.770
4.765
4.780
4.785
4.780
4.760
4.760
4.765
4.775
4.755
4.750
4.765
4.775
4.750
4.755
4.760
4.760
4.745
4.740
4.745
4.760
4.760
4.745
4.750
4.760
4.745
4.730
4.740
4.745
4.730
4.715
4.730
4.745
4.740
4.720
4.710
4.720
4.720
4.710
4.710
4.740
4.740
4.720
4.705
4.710
4.720
4.725
4.720
4.725
4.725
4.705
4.690
4.715
4.720
4.710
4.700
4.715
4.725
4.715
4.700
4.710
4.735
4.735
4.735
4.725
4.735
4.735
4.720
4.700
4.695
4.725
4.725
4.730
4.745
4.755
4.745
4.755
4.780
4.800
4.840
4.950
5.320
5.655
5.515
5.205
5.115
5.145
5.155
5.170
5.195
5.220
5.205
5.180
5.165
5.160
5.205
5.190
5.155
5.115
5.030
4.925
4.840
4.740
4.625
4.575
4.580
4.615
4.615
4.575
4.535
4.520
4.535
4.565
4.580
4.605
4.630
4.630
4.605
4.600
4.590
4.610
4.600
4.590
4.610
4.620
4.615
4.605
4.610
4.630
4.635
4.610
4.590
4.590
4.595
4.610
4.625
4.635
4.630
4.610
4.610
4.620
4.615
4.615
4.610
4.615
4.625
4.630
4.625
4.620
4.625
4.650
4.660
4.690
4.695
4.685
4.675
4.710
4.745
4.725
4.730
4.750
4.770
4.780
4.775
4.795
4.815
4.845
4.860
4.865
4.875
4.880
4.890
4.890
4.915
4.925
4.915
4.890
4.900
4.900
4.890
4.875
4.870
4.880
4.875
4.845
4.835
4.845
4.850
4.840
4.825
4.815
4.825
4.820
4.800
4.805
4.800
4.775
4.760
4.770
4.775
4.775
4.765
4.785
4.795
4.790
4.770
4.760
4.775
4.775
4.770
4.775
4.790
4.765
4.750
4.755
4.770
4.760
4.765
4.745
4.750
4.770
4.755
4.735
4.750
4.755
4.750
4.725
4.735
4.740
4.735
4.720
4.720
4.735
4.725
4.725
4.715
4.720
4.725
4.715
4.705
4.710
4.715
4.700
4.700
4.705
4.710
4.710
4.700
4.700
4.700
4.705
4.695
4.700
4.715
4.710
4.695
4.700
4.700
4.700
4.690
4.690
4.700
4.705
4.690
4.685
4.705
4.705
4.695
4.690
4.690
4.700
4.705
4.690
4.695
4.695
4.695
4.690
4.690
4.705
4.700
4.690
4.700
4.715
4.715
4.710
4.720
4.730
4.730
4.740
4.755
4.840
5.020
5.470
5.780
5.795
5.155
5.095
5.135
5.170
5.195
5.215
5.215
5.220
5.215
5.210
5.195
5.190
5.175
5.120
5.010
4.930
4.865
4.735
4.610
4.560
4.585
4.630
4.620
4.590
4.580
4.560
4.570
4.580
4.610
4.635
4.625
4.620
4.605
4.600
4.565
4.525
4.550
4.580
4.575
4.560
4.570
4.575
4.585
4.575
4.565
4.570
4.570
4.570
4.550
4.555
4.550
4.555
4.540
4.545
4.555
4.545
4.530
4.545
4.560
4.560
4.550
4.555
4.565
4.570
4.570
4.585
4.600
4.605
4.610
4.620
4.635
4.660
4.665
4.670
4.675
4.725
4.735
4.750
4.785
4.810
4.800
4.815
4.830
4.850
4.855
4.860
4.875
4.890
4.890
4.885
4.900
4.905
4.895
4.890
4.890
4.880
4.880
4.860
4.845
4.850
4.850
4.845
4.835
4.830
4.835
4.820
4.810
4.825
4.830
4.820
4.810
4.815
4.825
4.810
4.805
4.810
4.810
4.820
4.810
4.800
4.815
4.815
4.785
4.795
4.805
4.820
4.810
4.790
4.810
4.810
4.795
4.785
4.795
4.800
4.800
4.790
4.800
4.800
4.800
4.775
4.785
4.785
4.780
4.790
4.785
4.785
4.780
4.780
4.770
4.775
4.775
4.770
4.755
4.760
4.765
4.765
4.750
4.755
4.765
4.760
4.750
4.750
4.760
4.760
4.755
4.750
4.765
4.765
4.750
4.760
4.765
4.760
4.760
4.750
4.745
4.775
4.765
4.760
4.770
4.775
4.760
4.755
4.770
4.765
4.770
4.765
4.760
4.770
4.765
4.765
4.775
4.780
4.785
4.780
4.785
4.790
4.810
4.815
4.860
4.880
5.120
5.580
5.755
5.445
5.190
5.190
5.220
5.235
5.255
5.265
5.270
5.280
5.290
5.285
5.290
5.300
5.290
5.245
5.185
5.095
5.025
4.955
4.830
4.730
4.710
4.710
4.735
4.745
4.750
4.740
4.705
4.685
4.705
4.715
4.710
4.710
4.690
4.705
4.700
4.670
4.660
4.660
4.645
4.645
4.655
4.660
4.660
4.650
4.650
4.660
4.670
4.670
4.650
4.660
4.660
4.655
4.645
4.650
4.660
4.655
4.645
4.640
4.665
4.645
4.645
4.655
4.675
4.675
4.660
4.665
4.675
4.690
4.685
4.685
4.690
4.715
4.715
4.720
4.745
4.770
4.760
4.770
4.790
4.800
4.820
4.820
4.840
4.860
4.865
4.870
4.885
4.900
4.905
4.910
4.905
4.915
4.920
4.910
4.910
4.915
4.925
4.900
4.890
4.905
4.905
4.890
4.865
4.880
4.885
4.875
4.865
4.870
4.875
4.855
4.845
4.845
4.860
4.865
4.850
4.840
4.845
4.845
4.850
4.845
4.855
4.865
4.865
4.855
4.845
4.855
4.845
4.840
4.845
4.850
4.830
4.825
4.835
4.845
4.835
4.815
4.810
4.825
4.830
4.825
4.830
4.825
4.820
4.800
4.780
4.780
4.800
4.780
4.785
4.805
4.810
4.785
4.765
4.785
4.785
4.790
4.775
4.790
4.805
4.785
4.770
4.765
4.770
4.780
4.780
4.770
4.785
4.795
4.785
4.765
4.765
4.775
4.775
4.750
4.760
4.780
4.780
4.765
4.770
4.770
4.770
4.770
4.770
4.790
4.780
4.770
4.775
4.795
4.785
4.775
4.780
4.790
4.780
4.770
4.800
4.820
4.950
5.190
5.680
5.815
5.435
5.205
5.215
5.255
5.265
5.265
5.280
5.300
5.285
5.265
5.250
5.250
5.250
5.240
5.195
5.120
5.020
4.940
4.855
4.730
4.690
4.630
4.655
4.690
4.695
4.670
4.650
4.600
4.605
4.635
4.640
4.625
4.640
4.640
4.645
4.640
4.640
4.630
4.620
4.625
4.655
4.675
4.670
4.630
4.640
4.650
4.660
4.660
4.655
4.670
4.675
4.665
4.660
4.680
4.700
4.695
4.680
4.670
4.690
4.695
4.665
4.675
4.695
4.705
4.695
4.685
4.690
4.700
4.705
4.720
4.735
4.750
4.750
4.755
4.795
4.810
4.815
4.815
4.825
4.840
4.855
4.855
4.885
4.885
4.875
4.875
4.890
4.920
4.930
4.915
4.895
4.900
4.890
4.895
4.900
4.910
4.905
4.885
4.875
4.865
4.860
4.845
4.825
4.850
4.855
4.845
4.835
4.850
4.845
4.825
4.820
4.830
4.850
4.855
4.850
4.840
4.840
4.840
4.835
4.835
4.830
4.835
4.835
4.815
4.825
4.830
4.825
4.820
4.830
4.835
4.820
4.815
4.810
4.825
4.810
4.805
4.815
4.815
4.810
4.800
4.790
4.800
4.800
4.785
4.785
4.790
4.795
4.790
4.775
4.775
4.790
4.780
4.760
4.775
4.790
4.780
4.770
4.785
4.785
4.790
4.775
4.775
4.780
4.790
4.770
4.765
4.770
4.770
4.755
4.765
4.770
4.780
4.770
4.760
4.780
4.790
4.785
4.780
4.785
4.790
4.785
4.775
4.775
4.785
4.785
4.780
4.780
4.785
4.790
4.785
4.780
4.790
4.790
4.790
4.795
4.805
4.830
4.845
4.890
4.995
5.305
5.755
5.765
5.395
5.240
5.260
5.265
5.295
5.315
5.325
5.315
5.315
5.305
5.305
5.315
5.305
5.290
5.250
5.190
5.100
5.065
4.995
4.885
4.755
4.685
4.685
4.735
4.755
4.770
4.745
4.705
4.680
4.695
4.705
4.690
4.685
4.685
4.690
4.680
4.655
4.640
4.625
4.625
4.620
4.630
4.640
4.645
4.640
4.635
4.650
4.650
4.650
4.645
4.650
4.655
4.655
4.655
4.650
4.655
4.665
4.650
4.660
4.665
4.665
4.645
4.655
4.665
4.665
4.665
4.670
4.675
4.705
4.705
4.705
4.720
4.745
4.745
4.745
4.775
4.790
4.805
4.815
4.830
4.860
4.855
4.860
4.880
4.895
4.905
4.900
4.920
4.930
4.935
4.925
4.905
4.905
4.925
4.925
4.905
4.915
4.920
4.900
4.895
4.900
4.905
4.885
4.880
4.875
4.885
4.885
4.865
4.865
4.865
4.875
4.865
4.865
4.885
4.870
4.870
4.870
4.870
4.880
4.875
4.865
4.890
4.900
4.885
4.870
4.890
4.895
4.890
4.870
4.880
4.880
4.885
4.865
4.870
4.865
4.870
4.860
4.850
4.865
4.855
4.840
4.845
4.850
4.855
4.840
4.835
4.840
4.845
4.835
4.830
4.845
4.850
4.840
4.840
4.830
4.845
4.845
4.835
4.825
4.830
4.830
4.825
4.820
4.835
4.835
4.825
4.820
4.815
4.820
4.830
4.815
4.825
4.830
4.825
4.805
4.815
4.825
4.830
4.820
4.815
4.830
4.825
4.815
4.825
4.835
4.840
4.820
4.820
4.845
4.845
4.835
4.840
4.835
4.860
4.860
4.860
4.890
4.925
4.980
5.195
5.700
5.920
5.545
5.275
5.275
5.300
5.300
5.315
5.335
5.350
5.355
5.320
5.325
5.345
5.335
5.295
5.285
5.280
5.135
5.045
4.955
4.845
4.730
4.680
4.705
4.750
4.760
4.735
4.715
4.705
4.715
4.730
4.735
4.760
4.775
4.785
4.780
4.770
4.770
4.745
4.755
4.755
4.755
4.745
4.735
4.720
4.735
4.750
4.735
4.705
4.720
4.720
4.705
4.695
4.695
4.690
4.685
4.665
4.670
4.665
4.670
4.645
4.640
4.650
4.655
4.660
4.650
4.645
4.665
4.675
4.670
4.685
4.710
4.710
4.720
4.740
4.760
4.775
4.790
4.825
4.850
4.870
4.865
4.890
4.920
4.930
4.940
4.945
4.965
4.975
4.985
4.975
4.980
4.995
4.985
4.970
4.960
4.975
4.955
4.925
4.945
4.950
4.945
4.925
4.925
4.925
4.905
4.905
4.910
4.900
4.900
4.900
4.890
4.895
4.895
4.880
4.880
4.885
4.880
4.880
4.870
4.875
4.870
4.855
4.850
4.855
4.870
4.885
4.875
4.875
4.885
4.865
4.855
4.845
4.840
4.840
4.835
4.830
4.835
4.840
4.835
4.830
4.840
4.835
4.820
4.815
4.830
4.840
4.830
4.815
4.830
4.825
4.815
4.800
4.810
4.815
4.795
4.785
4.785
4.800
4.795
4.790
4.785
4.780
4.775
4.775
4.780
4.785
4.805
4.790
4.780
4.780
4.785
4.770
4.760
4.780
4.795
4.795
4.765
4.760
4.780
4.785
4.785
4.790
4.785
4.775
4.780
4.790
4.790
4.790
4.785
4.790
4.800
4.780
4.765
4.770
4.800
4.820
4.810
4.805
4.840
4.890
5.025
5.410
5.870
5.715
5.285
5.170
5.195
5.225
5.225
5.220
5.225
5.255
5.230
5.195
5.190
5.195
5.185
5.135
5.050
4.970
4.865
4.775
4.670
4.580
4.515
4.525
4.565
4.575
4.575
4.560
4.575
4.610
4.650
4.670
4.700
4.710
4.720
4.720
4.705
4.670
4.665
4.705
4.730
4.725
4.735
4.750
4.770
4.780
4.780
4.775
4.775
4.775
4.795
4.805
4.785
4.770
4.780
4.785
4.800
4.790
4.795
4.775
4.770
4.740
4.735
4.730
4.715
4.705
4.730
4.765
4.770
4.745
4.735
4.750
4.755
4.760
4.760
4.780
4.805
4.805
4.805
4.815
4.855
4.880
4.895
4.890
4.890
4.885
4.885
4.910
4.930
4.950
4.940
4.925
4.950
4.940
4.950
4.945
4.945
4.945
4.925
4.890
4.885
4.890
4.905
4.885
4.855
4.870
4.880
4.870
4.860
4.850
4.850
4.850
4.845
4.850
4.865
4.865
4.850
4.855
4.870
4.845
4.835
4.840
4.840
4.830
4.835
4.845
4.850
4.850
4.830
4.835
4.835
4.830
4.820
4.820
4.830
4.815
4.815
4.810
4.820
4.835
4.825
4.815
4.825
4.815
4.815
4.800
4.810
4.815
4.815
4.790
4.805
4.800
4.805
4.800
4.805
4.800
4.800
4.780
4.780
4.800
4.790
4.775
4.785
4.790
4.795
4.775
4.770
4.785
4.790
4.780
4.770
4.775
4.780
4.780
4.770
4.780
4.780
4.775
4.760
4.765
4.770
4.780
4.770
4.770
4.775
4.775
4.770
4.770
4.775
4.775
4.765
4.765
4.780
4.785
4.775
4.770
4.770
4.775
4.775
4.765
4.780
4.780
4.765
4.765
4.775
4.785
4.795
4.790
4.800
4.825
4.860
4.895
5.045
5.130
5.755
5.595
5.265
5.175
5.195
5.205
5.215
5.250
5.275
5.280
5.265
5.265
5.260
5.260
5.240
5.215
5.205
5.170
5.075
4.980
4.930
4.855
4.730
4.610
4.575
4.585
4.610
4.620
4.610
4.595
4.560
4.550
4.565
4.605
4.605
4.615
4.630
4.635
4.645
4.630
4.625
4.625
4.615
4.600
4.625
4.645
4.650
4.645
4.660
4.670
4.675
4.665
4.655
4.670
4.675
4.660
4.660
4.660
4.660
4.660
4.650
4.640
4.660
4.650
4.650
4.640
4.655
4.655
4.645
4.640
4.640
4.655
4.645
4.660
4.670
4.705
4.700
4.705
4.725
4.745
4.765
4.760
4.790
4.810
4.815
4.820
4.835
4.855
4.870
4.865
4.870
4.885
4.890
4.875
4.880
4.880
4.900
4.895
4.895
4.905
4.910
4.915
4.895
4.905
4.900
4.885
4.865
4.870
4.875
4.860
4.850
4.855
4.855
4.840
4.830
4.830
4.825
4.830
4.820
4.820
4.825
4.815
4.800
4.805
4.815
4.825
4.800
4.800
4.815
4.815
4.810
4.805
4.810
4.815
4.810
4.785
4.795
4.815
4.805
4.785
4.785
4.785
4.790
4.790
4.785
4.780
4.790
4.780
4.760
4.765
4.770
4.770
4.750
4.765
4.770
4.760
4.760
4.760
4.765
4.760
4.745
4.755
4.765
4.755
4.750
4.755
4.755
4.755
4.750
4.760
4.775
4.770
4.760
4.750
4.755
4.765
4.750
4.740
4.750
4.760
4.755
4.745
4.755
4.755
4.755
4.745
4.745
4.750
4.755
4.755
4.750
4.765
4.770
4.755
4.755
4.750
4.765
4.755
4.760
4.765
4.765
4.775
4.765
4.785
4.790
4.775
4.760
4.790
4.800
4.800
4.785
4.815
4.830
4.860
4.920
5.050
5.380
5.760
5.660
5.300
5.185
5.200
5.200
5.180
5.185
5.210
5.210
5.205
5.185
5.190
5.185
5.155
5.130
5.100
5.015
4.940
4.860
4.790
4.705
4.575
4.515
4.550
4.610
4.640
4.640
4.655
4.650
4.645
4.660
4.670
4.745
4.755
4.735
4.720
4.720
4.700
4.685
4.710
4.725
4.725
4.725
4.725
4.740
4.745
4.740
4.740
4.740
4.745
4.735
4.725
4.740
4.745
4.740
4.725
4.730
4.730
4.725
4.710
4.730
4.740
4.730
4.725
4.730
4.750
4.740
4.735
4.750
4.755
4.750
4.755
4.750
4.785
4.790
4.795
4.805
4.830
4.835
4.835
4.845
4.855
4.875
4.875
4.875
4.910
4.910
4.910
4.910
4.930
4.945
4.935
4.925
4.935
4.945
4.935
4.930
4.925
4.950
4.955
4.940
4.930
4.930
4.930
4.930
4.930
4.940
4.920
4.895
4.900
4.895
4.900
4.890
4.865
4.860
4.855
4.840
4.825
4.835
4.835
4.830
4.825
4.825
4.830
4.830
4.815
4.815
4.830
4.815
4.800
4.785
4.790
4.800
4.785
4.775
4.785
4.785
4.775
4.765
4.770
4.765
4.755
4.740
4.740
4.735
4.725
4.725
4.730
4.725
4.720
4.710
4.705
4.725
4.725
4.715
4.715
4.720
4.725
4.715
4.705
4.710
4.715
4.715
4.700
4.705
4.710
4.700
4.710
4.715
4.705
4.700
4.695
4.695
4.705
4.715
4.695
4.700
4.720
4.715
4.700
4.690
4.695
4.715
4.720
4.705
4.715
4.720
4.710
4.695
4.695
4.700
4.700
4.710
4.705
4.715
4.705
4.700
4.710
4.735
4.745
4.740
4.750
4.765
4.775
4.795
4.870
4.915
5.460
5.725
5.465
5.185
5.145
5.170
5.175
5.180
5.195
5.195
5.180
5.180
5.185
5.180
5.180
5.190
5.175
5.125
5.030
4.935
4.895
4.790
4.665
4.645
4.655
4.715
4.670
4.615
4.595
4.570
4.565
4.585
4.590
4.595
4.590
4.580
4.605
4.620
4.595
4.580
4.585
4.605
4.610
4.595
4.610
4.620
4.630
4.605
4.600
4.605
4.640
4.635
4.630
4.635
4.650
4.640
4.620
4.610
4.620
4.605
4.620
4.640
4.650
4.630
4.615
4.625
4.640
4.660
4.675
4.680
4.685
4.695
4.690
4.700
4.705
4.730
4.735
4.725
4.755
4.770
4.785
4.800
4.810
4.825
4.820
4.820
4.830
4.845
4.865
4.865
4.860
4.860
4.855
4.845
4.825
4.845
4.860
4.850
4.845
4.840
4.815
4.785
4.785
4.800
4.795
4.785
4.780
4.790
4.795
4.770
4.745
4.750
4.760
4.745
4.745
4.760
4.760
4.745
4.715
4.730
4.755
4.755
4.745
4.750
4.750
4.760
4.745
4.720
4.710
4.730
4.735
4.725
4.740
4.750
4.725
4.700
4.720
4.730
4.730
4.705
4.720
4.740
4.735
4.740
4.765
4.780
4.775
4.750
4.760
4.765
4.735
4.700
4.685
4.700
4.710
4.685
4.665
4.700
4.700
4.680
4.660
4.655
4.660
4.655
4.665
4.665
4.675
4.660
4.635
4.655
4.685
4.685
4.680
4.675
4.670
4.685
4.685
4.665
4.650
4.660
4.685
4.690
4.705
4.700
4.690
4.670
4.680
4.695
4.700
4.685
4.670
4.680
4.685
4.690
4.695
4.710
4.710
4.715
4.745
4.765
4.905
5.215
5.660
5.645
5.265
5.100
5.115
5.150
5.175
5.195
5.200
5.220
5.210
5.170
5.150
5.160
5.150
5.140
5.100
5.060
4.980
4.875
4.790
4.670
4.625
4.430
4.425
4.470
4.515
4.495
4.455
4.440
4.450
4.485
4.500
4.510
4.520
4.545
4.570
4.570
4.575
4.580
4.565
4.540
4.560
4.600
4.595
4.590
4.605
4.610
4.625
4.615
4.610
4.625
4.630
4.615
4.615
4.620
4.625
4.615
4.600
4.615
4.620
4.615
4.620
4.620
4.630
4.635
4.620
4.635
4.655
4.660
4.655
4.670
4.675
4.705
4.710
4.705
4.735
4.760
4.760
4.755
4.795
4.810
4.820
4.820
4.840
4.855
4.850
4.840
4.860
4.875
4.875
4.845
4.865
4.870
4.870
4.845
4.845
4.850
4.845
4.835
4.810
4.815
4.820
4.805
4.795
4.800
4.805
4.795
4.780
4.785
4.785
4.805
4.780
4.790
4.790
4.790
4.795
4.795
4.790
4.795
4.795
4.785
4.780
4.800
4.795
4.790
4.795
4.795
4.785
4.775
4.780
4.785
4.775
4.755
4.765
4.775
4.780
4.770
4.770
4.770
4.765
4.760
4.765
4.765
4.765
4.765
4.765
4.775
4.790
4.780
4.755
4.765
4.760
4.755
4.740
4.755
4.760
4.725
4.710
4.705
4.720
4.710
4.700
4.700
4.710
4.720
4.710
4.705
4.715
4.720
4.700
4.695
4.700
4.705
4.690
4.695
4.710
4.720
4.710
4.710
4.720
4.730
4.715
4.710
4.720
4.735
4.735
4.720
4.725
4.740
4.740
4.735
4.740
4.750
4.765
4.775
4.830
4.855
5.260
5.745
5.750
5.350
5.155
5.155
5.190
5.210
5.245
5.260
5.270
5.275
5.280
5.270
5.285
5.295
5.285
5.275
5.245
5.175
5.085
5.025
4.940
4.810
4.770
4.655
4.655
4.680
4.710
4.700
4.660
4.615
4.605
4.605
4.620
4.615
4.625
4.620
4.635
4.635
4.630
4.630
4.620
4.605
4.630
4.650
4.655
4.635
4.635
4.650
4.675
4.660
4.655
4.670
4.665
4.655
4.645
4.655
4.655
4.650
4.645
4.645
4.655
4.650
4.640
4.660
4.665
4.660
4.650
4.655
4.675
4.675
4.680
4.695
4.700
4.725
4.725
4.745
4.760
4.790
4.805
4.800
4.820
4.845
4.855
4.865
4.875
4.895
4.900
4.900
4.900
4.915
4.920
4.915
4.910
4.920
4.915
4.895
4.890
4.895
4.900
4.870
4.855
4.880
4.875
4.860
4.860
4.865
4.860
4.860
4.850
4.865
4.855
4.845
4.835
4.845
4.850
4.855
4.845
4.845
4.860
4.850
4.845
4.850
4.845
4.865
4.850
4.840
4.855
4.855
4.845
4.845
4.850
4.855
4.845
4.830
4.830
4.840
4.840
4.820
4.830
4.835
4.845
4.820
4.815
4.835
4.830
4.820
4.810
4.820
4.830
4.820
4.815
4.820
4.820
4.825
4.820
4.815
4.825
4.820
4.810
4.805
4.810
4.820
4.810
4.810
4.825
4.820
4.800
4.810
4.820
4.825
4.810
4.800
4.805
4.820
4.805
4.790
4.800
4.810
4.810
4.815
4.835
4.845
4.845
4.840
4.850
4.870
4.875
4.870
4.855
4.860
4.870
4.865
4.860
4.860
4.870
4.840
4.835
4.840
4.865
4.860
4.875
4.920
4.980
5.145
5.570
5.870
5.615
5.300
5.240
5.275
5.290
5.295
5.290
5.325
5.345
5.345
5.355
5.405
5.455
5.470
5.455
5.420
5.410
5.345
5.250
5.175
5.095
4.965
4.840
4.770
4.805
4.815
4.830
4.800
4.775
4.760
4.730
4.720
4.745
4.770
4.780
4.745
4.720
4.715
4.710
4.705
4.705
4.710
4.725
4.720
4.715
4.740
4.750
4.755
4.740
4.760
4.765
4.760
4.760
4.765
4.775
4.760
4.750
4.770
4.770
4.785
4.790
4.790
4.805
4.790
4.800
4.785
4.790
4.800
4.805
4.815
4.825
4.835
4.845
4.840
4.865
4.880
4.880
4.880
4.900
4.915
4.910
4.905
4.905
4.935
4.940
4.940
4.935
4.945
4.930
4.910
4.915
4.930
4.930
4.915
4.905
4.905
4.915
4.895
4.875
4.885
4.885
4.870
4.845
4.850
4.865
4.840
4.850
4.845
4.865
4.855
4.845
4.835
4.845
4.845
4.825
4.830
4.830
4.850
4.835
4.840
4.850
4.860
4.855
4.830
4.835
4.830
4.820
4.810
4.840
4.875
4.870
4.835
4.835
4.845
4.840
4.830
4.830
4.845
4.825
4.800
4.785
4.785
4.795
4.795
4.790
4.810
4.815
4.815
4.810
4.790
4.780
4.765
4.780
4.800
4.825
4.815
4.795
4.785
4.790
4.775
4.775
4.785
4.795
4.800
4.785
4.770
4.775
4.785
4.760
4.760
4.780
4.790
4.780
4.770
4.780
4.785
4.760
4.745
4.765
4.780
4.760
4.760
4.805
4.820
4.805
4.775
4.760
4.785
4.785
4.790
4.790
4.785
4.790
4.790
4.790
4.810
4.820
4.830
4.810
4.825
4.835
4.840
4.880
4.960
5.230
5.710
5.785
5.420
5.195
5.190
5.220
5.245
5.270
5.270
5.260
5.250
5.250
5.230
5.200
5.155
5.100
5.015
4.930
4.865
4.790
4.695
4.560
4.440
4.400
4.440
4.500
4.535
4.555
4.550
4.550
4.560
4.590
4.660
4.715
4.745
4.730
4.720
4.690
4.695
4.690
4.715
4.730
4.730
4.680
4.695
4.705
4.725
4.735
4.750
4.755
4.745
4.755
4.775
4.780
4.780
4.780
4.775
4.770
4.775
4.765
4.775
4.775
4.775
4.770
4.790
4.820
4.830
4.805
4.790
4.815
4.820
4.820
4.830
4.875
4.890
4.885
4.880
4.900
4.925
4.930
4.925
4.935
4.955
4.960
4.955
4.970
4.975
4.995
4.985
4.980
5.000
5.000
4.985
4.980
4.980
4.980
4.960
4.945
4.945
4.955
4.935
4.910
4.930
4.935
4.930
4.905
4.895
4.890
4.900
4.895
4.890
4.895
4.900
4.880
4.880
4.890
4.900
4.885
4.875
4.885
4.895
4.875
4.860
4.880
4.880
4.875
4.865
4.880
4.880
4.870
4.860
4.865
4.880
4.875
4.860
4.855
4.860
4.870
4.850
4.845
4.855
4.850
4.840
4.835
4.845
4.845
4.850
4.835
4.840
4.850
4.835
4.825
4.830
4.840
4.845
4.820
4.810
4.830
4.830
4.825
4.810
4.810
4.820
4.820
4.805
4.810
4.820
4.805
4.805
4.810
4.815
4.810
4.795
4.810
4.810
4.805
4.800
4.805
4.815
4.815
4.800
4.795
4.810
4.815
4.800
4.800
4.805
4.815
4.810
4.805
4.815
4.820
4.820
4.800
4.820
4.825
4.825
4.815
4.820
4.835
4.835
4.820
4.845
4.850
4.860
4.875
4.930
5.040
5.345
5.860
5.970
5.905
5.295
5.280
5.300
5.330
5.340
5.355
5.365
5.370
5.360
5.340
5.345
5.345
5.315
5.290
5.230
5.150
5.070
4.990
4.900
4.775
4.675
4.630
4.640
4.670
4.685
4.695
4.665
4.660
4.680
4.705
4.730
4.745
4.780
4.790
4.765
4.740
4.745
4.730
4.740
4.745
4.765
4.760
4.740
4.720
4.725
4.750
4.735
4.720
4.720
4.725
4.720
4.710
4.700
4.705
4.700
4.700
4.675
4.690
4.685
4.670
4.660
4.655
4.670
4.665
4.665
4.670
4.680
4.690
4.680
4.695
4.720
4.725
4.720
4.735
4.745
4.770
4.785
4.795
4.825
4.850
4.860
4.865
4.900
4.915
4.925
4.935
4.965
4.990
5.000
4.990
5.005
5.015
5.015
5.010
5.015
5.020
5.015
4.995
4.995
5.000
4.995
4.990
4.980
4.985
4.980
4.970
4.960
4.960
4.965
4.955
4.950
4.945
4.955
4.935
4.935
4.935
4.955
4.950
4.935
4.940
4.945
4.945
4.940
4.935
4.930
4.950
4.945
4.930
4.945
4.950
4.945
4.930
4.940
4.945
4.935
4.935
4.935
4.945
4.930
4.925
4.925
4.930
4.930
4.915
4.920
4.925
4.920
4.910
4.915
4.920
4.920
4.910
4.905
4.920
4.920
4.905
4.900
4.905
4.910
4.905
4.890
4.905
4.910
4.905
4.895
4.900
4.910
4.895
4.895
4.900
4.905
4.905
4.895
4.890
4.895
4.905
4.900
4.890
4.895
4.910
4.900
4.885
4.900
4.910
4.895
4.895
4.885
4.900
4.900
4.890
4.900
4.905
4.910
4.895
4.895
4.910
4.905
4.890
4.895
4.900
4.915
4.910
4.905
4.920
4.930
4.925
4.915
4.945
4.960
4.980
5.020
5.135
5.500
5.925
5.840
5.470
5.345
5.335
5.335
5.340
5.365
5.365
5.360
5.345
5.350
5.335
5.340
5.340
5.335
5.295
5.235
5.165
5.080
5.020
4.925
4.815
4.720
4.665
4.670
4.710
4.755
4.780
4.770
4.755
4.750
4.765
4.780
4.800
4.850
4.860
4.855
4.825
4.805
4.815
4.800
4.800
4.805
4.825
4.840
4.845
4.845
4.860
4.880
4.880
4.875
4.875
4.885
4.875
4.885
4.890
4.905
4.885
4.865
4.870
4.875
4.870
4.860
4.835
4.830
4.820
4.800
4.785
4.790
4.800
4.790
4.785
4.785
4.795
4.785
4.780
4.795
4.805
4.810
4.810
4.830
4.845
4.860
4.845
4.870
4.880
4.910
4.910
4.930
4.955
4.965
4.965
4.970
4.980
4.990
4.990
4.980
4.995
4.995
4.995
4.995
5.010
5.025
5.015
4.980
4.970
4.985
4.975
4.965
4.955
4.965
4.965
4.950
4.955
4.965
4.945
4.925
4.905
4.925
4.930
4.915
4.910
4.920
4.930
4.925
4.925
4.910
4.915
4.910
4.900
4.900
4.920
4.900
4.875
4.880
4.890
4.890
4.880
4.865
4.890
4.875
4.885
4.870
4.875
4.880
4.870
4.855
4.865
4.855
4.845
4.835
4.845
4.860
4.850
4.845
4.825
4.845
4.855
4.830
4.825
4.830
4.845
4.850
4.835
4.840
4.825
4.810
4.805
4.830
4.835
4.830
4.820
4.825
4.835
4.820
4.805
4.805
4.825
4.820
4.810
4.815
4.840
4.835
4.820
4.805
4.810
4.810
4.775
4.765
4.795
4.800
4.795
4.775
4.795
4.805
4.805
4.815
4.820
4.825
4.805
4.795
4.795
4.805
4.790
4.805
4.805
4.810
4.815
4.795
4.800
4.810
4.910
5.055
5.485
5.910
5.760
5.380
5.225
5.235
5.230
5.210
5.195
5.230
5.235
5.205
5.165
5.170
5.190
5.155
5.105
5.030
4.965
4.870
4.780
4.695
4.655
4.455
4.395
4.445
4.520
4.550
4.535
4.520
4.530
4.550
4.580
4.620
4.670
4.690
4.660
4.660
4.680
4.715
4.705
4.685
4.680
4.690
4.695
4.685
4.700
4.710
4.750
4.740
4.735
4.745
4.750
4.740
4.735
4.735
4.735
4.730
4.720
4.745
4.755
4.765
4.745
4.755
4.750
4.760
4.775
4.775
4.780
4.785
4.765
4.780
4.785
4.815
4.795
4.760
4.755
4.790
4.805
4.800
4.805
4.815
4.835
4.830
4.855
4.870
4.870
4.860
4.890
4.885
4.890
4.875
4.870
4.900
4.925
4.925
4.885
4.875
4.900
4.890
4.855
4.820
4.815
4.825
4.820
4.835
4.845
4.825
4.800
4.795
4.805
4.825
4.800
4.785
4.795
4.805
4.785
4.780
4.785
4.780
4.765
4.780
4.790
4.795
4.790
4.780
4.795
4.805
4.805
4.795
4.800
4.780
4.760
4.765
4.785
4.790
4.775
4.760
4.770
4.785
4.770
4.760
4.770
4.785
4.775
4.765
4.760
4.755
4.760
4.745
4.750
4.750
4.765
4.745
4.740
4.765
4.760
4.755
4.750
4.760
4.760
4.745
4.735
4.740
4.745
4.745
4.755
4.750
4.755
4.755
4.740
4.745
4.755
4.750
4.740
4.725
4.740
4.735
4.730
4.725
4.740
4.745
4.745
4.735
4.750
4.765
4.725
4.725
4.740
4.755
4.755
4.745
4.745
4.760
4.755
4.760
4.755
4.770
4.785
4.795
4.835
4.930
5.235
5.730
5.825
5.440
5.205
5.200
5.215
5.250
5.265
5.290
5.285
5.260
5.255
5.250
5.240
5.190
5.160
5.085
4.950
4.835
4.815
4.660
4.515
4.425
4.460
4.505
4.510
4.475
4.480
4.480
4.510
4.540
4.585
4.610
4.620
4.610
4.620
4.625
4.615
4.600
4.620
4.640
4.660
4.650
4.660
4.670
4.685
4.675
4.680
4.690
4.685
4.665
4.660
4.670
4.675
4.670
4.660
4.665
4.680
4.660
4.655
4.665
4.675
4.675
4.680
4.690
4.710
4.715
4.710
4.690
4.695
4.720
4.725
4.720
4.740
4.760
4.755
4.745
4.775
4.790
4.805
4.810
4.825
4.850
4.860
4.870
4.890
4.895
4.890
4.905
4.910
4.920
4.915
4.895
4.895
4.890
4.905
4.885
4.875
4.865
4.870
4.865
4.855
4.855
4.860
4.855
4.845
4.850
4.860
4.840
4.835
4.850
4.855
4.850
4.845
4.855
4.865
4.855
4.850
4.850
4.855
4.855
4.850
4.845
4.855
4.850
4.850
4.825
4.845
4.850
4.835
4.830
4.835
4.840
4.830
4.830
4.825
4.835
4.825
4.815
4.825
4.825
4.815
4.815
4.805
4.805
4.825
4.810
4.800
4.815
4.820
4.805
4.800
4.815
4.825
4.805
4.810
4.820
4.825
4.815
4.800
4.815
4.820
4.815
4.810
4.810
4.820
4.815
4.800
4.805
4.810
4.810
4.810
4.800
4.815
4.815
4.805
4.800
4.825
4.830
4.815
4.810
4.815
4.830
4.820
4.815
4.830
4.835
4.835
4.820
4.835
4.855
4.850
4.855
4.875
4.880
4.990
5.175
5.665
5.885
5.560
5.270
5.230
5.265
5.275
5.260
5.250
5.270
5.275
5.245
5.245
5.255
5.235
5.185
5.125
5.050
4.980
4.885
4.775
4.655
4.615
4.590
4.625
4.675
4.695
4.710
4.695
4.695
4.710
4.745
4.790
4.805
4.795
4.780
4.765
4.745
4.750
4.760
4.780
4.780
4.790
4.795
4.795
4.785
4.785
4.795
4.790
4.780
4.780
4.790
4.785
4.790
4.770
4.780
4.785
4.780
4.770
4.785
4.800
4.805
4.800
4.820
4.835
4.820
4.800
4.820
4.830
4.830
4.830
4.825
4.830
4.840
4.820
4.820
4.845
4.850
4.865
4.865
4.885
4.900
4.905
4.910
4.930
4.940
4.950
4.930
4.950
4.960
4.955
4.955
4.950
4.960
4.950
4.940
4.935
4.940
4.930
4.920
4.910
4.915
4.915
4.900
4.885
4.890
4.905
4.885
4.870
4.880
4.875
4.870
4.855
4.870
4.880
4.880
4.875
4.865
4.885
4.870
4.865
4.855
4.850
4.865
4.845
4.825
4.850
4.845
4.825
4.825
4.835
4.840
4.845
4.835
4.830
4.820
4.820
4.800
4.805
4.810
4.805
4.810
4.805
4.820
4.800
4.790
4.785
4.790
4.800
4.805
4.800
4.815
4.810
4.790
4.785
4.780
4.780
4.780
4.765
4.775
4.775
4.775
4.775
4.775
4.790
4.790
4.775
4.775
4.780
4.795
4.775
4.775
4.770
4.780
4.775
4.770
4.785
4.790
4.785
4.770
4.770
4.775
4.775
4.775
4.800
4.805
4.800
4.790
4.780
4.790
4.790
4.785
4.790
4.805
4.810
4.815
4.875
4.900
5.255
5.750
5.885
5.515
5.225
5.190
5.190
5.200
5.205
5.220
5.220
5.210
5.185
5.170
5.170
5.155
5.115
5.060
4.965
4.875
4.800
4.680
4.540
4.470
4.465
4.555
4.575
4.570
4.580
4.575
4.585
4.595
4.655
4.685
4.720
4.695
4.685
4.690
4.690
4.685
4.695
4.725
4.725
4.710
4.710
4.715
4.725
4.725
4.720
4.720
4.725
4.715
4.720
4.750
4.765
4.765
4.765
4.765
4.775
4.765
4.745
4.745
4.770
4.765
4.755
4.755
4.765
4.775
4.755
4.755
4.770
4.765
4.755
4.730
4.720
4.730
4.745
4.755
4.760
4.790
4.810
4.810
4.800
4.810
4.835
4.845
4.870
4.870
4.860
4.860
4.865
4.890
4.895
4.880
4.880
4.890
4.870
4.865
4.855
4.860
4.840
4.815
4.790
4.800
4.805
4.795
4.790
4.795
4.810
4.815
4.805
4.815
4.820
4.805
4.765
4.770
4.760
4.770
4.775
4.780
4.800
4.780
4.760
4.760
4.765
4.780
4.755
4.755
4.765
4.785
4.780
4.780
4.765
4.760
4.755
4.765
4.780
4.785
4.780
4.755
4.780
4.785
4.775
4.745
4.745
4.770
4.760
4.760
4.745
4.755
4.770
4.750
4.745
4.760
4.765
4.750
4.750
4.770
4.765
4.750
4.740
4.755
4.770
4.760
4.755
4.760
4.755
4.755
4.745
4.755
4.760
4.760
4.750
4.740
4.745
4.755
4.755
4.755
4.755
4.760
4.755
4.745
4.755
4.760
4.755
4.750
4.745
4.760
4.770
4.750
4.770
4.770
4.770
4.765
4.760
4.770
4.775
4.760
4.770
4.775
4.780
4.775
4.780
4.790
4.815
4.830
4.865
5.000
5.360
5.755
5.640
5.300
5.200
5.210
5.215
5.245
5.270
5.280
5.290
5.270
5.275
5.255
5.245
5.230
5.225
5.170
5.105
5.010
4.915
4.845
4.740
4.595
4.525
4.515
4.550
4.570
4.580
4.570
4.545
4.535
4.555
4.595
4.615
4.625
4.650
4.675
4.675
4.655
4.650
4.650
4.650
4.645
4.655
4.685
4.700
4.690
4.680
4.710
4.720
4.710
4.715
4.720
4.725
4.730
4.725
4.740
4.745
4.745
4.735
4.725
4.720
4.720
4.710
4.710
4.720
4.720
4.695
4.685
4.670
4.675
4.660
4.655
4.675
4.680
4.675
4.670
4.685
4.705
4.710
4.715
4.745
4.760
4.775
4.785
4.815
4.835
4.865
4.865
4.890
4.905
4.935
4.945
4.950
4.975
4.980
4.980
4.965
4.985
4.985
4.975
4.965
4.960
4.955
4.955
4.945
4.950
4.950
4.955
4.925
4.925
4.935
4.930
4.925
4.910
4.910
4.925
4.915
4.905
4.920
4.925
4.915
4.915
4.915
4.920
4.915
4.910
4.910
4.920
4.910
4.900
4.905
4.920
4.910
4.895
4.890
4.915
4.900
4.890
4.885
4.885
4.900
4.880
4.875
4.895
4.900
4.880
4.875
4.895
4.895
4.885
4.870
4.885
4.880
4.865
4.870
4.880
4.885
4.875
4.865
4.860
4.875
4.870
4.860
4.860
4.860
4.865
4.865
4.860
4.865
4.875
4.855
4.850
4.860
4.870
4.855
4.845
4.865
4.875
4.865
4.855
4.860
4.865
4.860
4.850
4.855
4.875
4.880
4.850
4.860
4.870
4.865
4.865
4.865
4.880
4.875
4.870
4.870
4.890
4.895
4.890
4.885
4.895
4.910
4.920
4.945
5.015
5.230
5.685
5.985
5.760
5.415
5.315
5.320
5.320
5.325
5.335
5.335
5.330
5.330
5.320
5.310
5.295
5.280
5.250
5.180
5.100
5.025
4.945
4.860
4.735
4.630
4.615
4.660
4.700
4.735
4.755
4.750
4.730
4.740
4.745
4.800
4.830
4.845
4.855
4.835
4.815
4.800
4.815
4.820
4.820
4.825
4.845
4.855
4.860
4.860
4.875
4.885
4.890
4.880
4.875
4.870
4.865
4.860
4.855
4.860
4.860
4.840
4.820
4.820
4.805
4.795
4.790
4.795
4.795
4.790
4.765
4.785
4.790
4.790
4.780
4.775
4.785
4.790
4.795
4.805
4.820
4.825
4.830
4.855
4.865
4.875
4.885
4.905
4.925
4.930
4.950
4.955
4.975
4.980
4.985
4.985
4.995
5.000
5.005
4.990
5.005
5.010
5.010
4.990
4.990
4.980
4.975
4.950
4.955
4.960
4.965
4.960
4.940
4.950
4.940
4.925
4.920
4.935
4.940
4.930
4.925
4.930
4.925
4.915
4.905
4.895
4.890
4.900
4.905
4.905
4.905
4.900
4.895
4.885
4.890
4.910
4.895
4.880
4.900
4.895
4.895
4.885
4.885
4.875
4.860
4.850
4.860
4.870
4.870
4.840
4.840
4.850
4.860
4.860
4.865
4.865
4.845
4.835
4.840
4.850
4.845
4.855
4.845
4.850
4.840
4.815
4.810
4.820
4.820
4.795
4.805
4.820
4.835
4.845
4.840
4.825
4.830
4.815
4.795
4.800
4.825
4.825
4.810
4.810
4.815
4.820
4.820
4.810
4.825
4.830
4.825
4.825
4.840
4.845
4.825
4.805
4.820
4.815
4.810
4.800
4.820
4.845
4.845
4.850
4.845
4.845
4.845
4.845
4.890
4.900
5.035
5.340
5.815
5.840
5.440
5.240
5.230
5.260
5.265
5.275
5.280
5.290
5.260
5.230
5.220
5.235
5.230
5.185
5.105
5.010
4.920
4.840
4.765
4.655
4.615
4.485
4.485
4.545
4.605
4.620
4.615
4.600
4.595
4.620
4.675
4.725
4.785
4.785
4.730
4.720
4.750
4.775
4.800
4.805
4.830
4.835
4.800
4.775
4.800
4.815
4.840
4.815
4.790
4.800
4.800
4.770
4.745
4.750
4.750
4.750
4.750
4.745
4.720
4.700
4.690
4.715
4.745
4.740
4.725
4.725
4.725
4.700
4.695
4.690
4.700
4.725
4.730
4.740
4.755
4.765
4.770
4.775
4.800
4.810
4.815
4.830
4.865
4.890
4.890
4.885
4.890
4.910
4.920
4.940
4.940
4.960
4.965
4.945
4.930
4.930
4.930
4.925
4.925
4.940
4.930
4.905
4.900
4.895
4.900
4.875
4.860
4.850
4.860
4.840
4.825
4.820
4.830
4.835
4.830
4.835
4.835
4.830
4.820
4.810
4.815
4.830
4.815
4.815
4.830
4.835
4.810
4.800
4.815
4.820
4.815
4.810
4.815
4.820
4.805
4.800
4.800
4.800
4.800
4.785
4.795
4.805
4.795
4.780
4.780
4.785
4.790
4.795
4.785
4.800
4.795
4.780
4.765
4.780
4.790
4.780
4.765
4.765
4.780
4.775
4.755
4.765
4.775
4.770
4.765
4.760
4.775
4.765
4.750
4.745
4.750
4.750
4.740
4.735
4.745
4.755
4.735
4.735
4.745
4.755
4.745
4.735
4.740
4.755
4.745
4.735
4.740
4.750
4.745
4.730
4.730
4.750
4.750
4.740
4.745
4.755
4.740
4.750
4.735
4.760
4.755
4.750
4.750
4.750
4.750
4.765
4.755
4.760
4.770
4.765
4.765
4.805
4.835
4.890
5.000
5.370
5.775
5.660
5.300
5.175
5.175
5.220
5.220
5.235
5.270
5.300
5.295
5.280
5.275
5.280
5.270
5.245
5.235
5.200
5.150
5.040
4.970
4.920
4.830
4.710
4.615
4.585
4.610
4.625
4.645
4.640
4.615
4.590
4.575
4.610
4.640
4.650
4.675
4.690
4.710
4.705
4.685
4.665
4.675
4.650
4.645
4.670
4.685
4.685
4.675
4.675
4.685
4.665
4.655
4.655
4.665
4.660
4.650
4.635
4.645
4.640
4.625
4.600
4.615
4.610
4.605
4.595
4.595
4.595
4.600
4.585
4.595
4.605
4.600
4.595
4.595
4.615
4.620
4.620
4.630
4.645
4.675
4.680
4.690
4.725
4.750
4.760
4.780
4.810
4.830
4.860
4.870
4.895
4.915
4.920
4.935
4.965
4.975
4.980
4.975
4.980
4.985
4.980
4.965
4.970
4.965
4.965
4.950
4.945
4.940
4.945
4.925
4.920
4.920
4.925
4.915
4.905
4.925
4.920
4.915
4.905
4.920
4.910
4.915
4.900
4.900
4.920
4.905
4.895
4.895
4.900
4.915
4.900
4.885
4.905
4.920
4.905
4.885
4.895
4.895
4.895
4.885
4.895
4.880
4.890
4.880
4.875
4.875
4.880
4.860
4.855
4.865
4.850
4.845
4.850
4.855
4.860
4.835
4.830
4.845
4.855
4.845
4.835
4.845
4.845
4.835
4.840
4.840
4.850
4.845
4.825
4.835
4.830
4.835
4.830
4.825
4.830
4.835
4.825
4.820
4.830
4.840
4.830
4.815
4.840
4.840
4.835
4.820
4.830
4.840
4.840
4.830
4.835
4.840
4.830
4.825
4.840
4.845
4.835
4.840
4.840
4.850
4.855
4.850
4.860
4.870
4.895
4.925
5.010
5.305
5.785
5.825
5.450
5.280
5.315
5.325
5.320
5.330
5.350
5.355
5.345
5.340
5.335
5.360
5.335
5.335
5.330
5.290
5.205
5.110
5.085
4.975
4.850
4.775
4.765
4.815
4.840
4.840
4.820
4.785
4.750
4.725
4.755
4.770
4.775
4.770
4.765
4.780
4.755
4.715
4.705
4.695
4.715
4.725
4.715
4.710
4.725
4.715
4.705
4.710
4.700
4.695
4.685
4.685
4.690
4.685
4.675
4.680
4.675
4.675
4.660
4.670
4.675
4.670
4.655
4.665
4.675
4.665
4.665
4.670
4.675
4.685
4.700
4.705
4.730
4.745
4.760
4.775
4.805
4.830
4.840
4.855
4.875
4.910
4.920
4.925
4.955
4.965
4.980
4.975
4.980
5.000
5.000
4.985
4.995
5.000
4.990
4.985
4.970
4.985
4.985
4.960
4.950
4.945
4.950
4.940
4.915
4.925
4.945
4.920
4.900
4.885
4.900
4.905
4.890
4.900
4.920
4.910
4.905
4.895
4.905
4.925
4.900
4.895
4.900
4.900
4.885
4.890
4.900
4.885
4.870
4.855
4.875
4.890
4.875
4.870
4.860
4.860
4.865
4.845
4.845
4.870
4.860
4.845
4.845
4.845
4.845
4.835
4.835
4.845
4.845
4.840
4.825
4.835
4.825
4.810
4.810
4.830
4.845
4.845
4.825
4.835
4.840
4.810
4.800
4.805
4.845
4.830
4.805
4.790
4.795
4.830
4.820
4.795
4.820
4.840
4.815
4.775
4.800
4.825
4.850
4.840
4.835
4.835
4.830
4.820
4.845
4.860
4.850
4.850
4.860
4.870
4.860
4.840
4.850
4.865
4.945
5.080
5.455
5.915
5.790
5.380
5.230
5.275
5.310
5.335
5.330
5.325
5.340
5.310
5.260
5.280
5.295
5.310
5.295
5.285
5.235
5.125
4.990
4.900
4.875
4.655
4.595
4.620
4.670
4.675
4.630
4.580
4.565
4.580
4.615
4.615
4.655
4.675
4.685
4.690
4.695
4.670
4.635
4.615
4.635
4.680
4.700
4.695
4.695
4.705
4.725
4.710
4.670
4.680
4.695
4.705
4.690
4.700
4.710
4.700
4.705
4.720
4.725
4.695
4.675
4.690
4.695
4.690
4.705
4.735
4.760
4.740
4.715
4.735
4.750
4.790
4.800
4.810
4.840
4.855
4.860
4.865
4.905
4.940
4.950
4.945
4.955
4.960
4.975
4.975
4.985
4.995
4.985
4.975
4.980
4.980
4.970
4.975
4.965
4.970
4.935
4.910
4.895
4.925
4.930
4.905
4.880
4.895
4.895
4.885
4.865
4.870
4.875
4.880
4.865
4.890
4.875
4.875
4.865
4.865
4.880
4.870
4.860
4.870
4.880
4.880
4.860
4.855
4.855
4.870
4.860
4.840
4.855
4.860
4.850
4.840
4.855
4.860
4.830
4.835
4.845
4.850
4.840
4.825
4.815
4.835
4.835
4.820
4.820
4.825
4.825
4.820
4.800
4.820
4.815
4.805
4.800
4.805
4.810
4.810
4.800
4.800
4.810
4.810
4.800
4.805
4.810
4.805
4.790
4.795
4.815
4.805
4.800
4.800
4.805
4.805
4.795
4.795
4.800
4.790
4.800
4.790
4.810
4.815
4.810
4.805
4.810
4.825
4.820
4.815
4.815
4.820
4.820
4.820
4.820
4.835
4.845
4.835
4.840
4.850
4.900
4.960
5.120
5.570
5.905
5.630
5.300
5.255
5.300
5.310
5.325
5.360
5.390
5.395
5.385
5.400
5.400
5.395
5.365
5.340
5.305
5.225
5.135
5.070
5.055
4.885
4.760
4.720
4.745
4.785
4.785
4.755
4.750
4.735
4.730
4.725
4.750
4.755
4.740
4.730
4.725
4.715
4.670
4.645
4.645
4.665
4.665
4.650
4.645
4.655
4.665
4.660
4.665
4.680
4.670
4.660
4.655
4.670
4.675
4.665
4.655
4.660
4.675
4.665
4.660
4.665
4.675
4.680
4.675
4.690
4.705
4.710
4.700
4.720
4.730
4.755
4.765
4.780
4.805
4.825
4.835
4.850
4.880
4.900
4.915
4.920
4.950
4.970
4.985
4.975
4.985
5.000
5.000
5.000
5.000
5.015
5.010
4.995
4.995
4.995
4.985
4.970
4.960
4.965
4.970
4.960
4.950
4.955
4.960
4.955
4.940
4.940
4.950
4.935
4.935
4.935
4.950
4.940
4.935
4.930
4.950
4.950
4.950
4.940
4.945
4.945
4.935
4.935
4.940
4.935
4.925
4.910
4.925
4.930
4.925
4.915
4.925
4.915
4.910
4.905
4.905
4.910
4.900
4.895
4.895
4.895
4.900
4.880
4.885
4.885
4.890
4.890
4.870
4.880
4.880
4.880
4.860
4.865
4.870
4.870
4.865
4.870
4.880
4.870
4.860
4.860
4.880
4.875
4.860
4.850
4.870
4.860
4.845
4.850
4.855
4.860
4.860
4.860
4.860
4.860
4.795
4.795
4.790
4.810
4.800
4.795
4.800
4.805
4.805
4.795
4.790
4.790
4.790
4.780
4.780
4.785
4.785
4.785
4.800
4.820
4.825
4.830
4.825
4.835
4.855
4.865
4.850
4.850
4.860
4.860
4.845
4.865
4.880
4.910
4.950
5.140
5.615
5.800
5.430
5.170
5.190
5.245
5.260
5.250
5.285
5.305
5.300
5.295
5.295
5.365
5.375
5.370
5.375
5.355
5.280
5.210
5.150
5.055
4.940
4.875
4.885
4.915
4.915
4.860
4.795
4.750
4.720
4.690
4.680
4.690
4.690
4.685
4.655
4.650
4.665
4.640
4.620
4.620
4.630
4.640
4.610
4.620
4.635
4.655
4.635
4.645
4.655
4.670
4.655
4.655
4.665
4.670
4.670
4.665
4.675
4.685
4.675
4.660
4.660
4.685
4.690
4.675
4.700
4.700
4.700
4.690
4.715
4.740
4.740
4.735
4.760
4.775
4.775
4.775
4.790
4.815
4.815
4.805
4.820
4.845
4.865
4.875
4.860
4.865
4.900
4.880
4.875
4.875
4.895
4.885
4.870
4.885
4.895
4.895
4.875
4.865
4.860
4.860
4.845
4.830
4.840
4.850
4.835
4.820
4.815
4.815
4.805
4.805
4.810
4.835
4.835
4.815
4.825
4.845
4.835
4.820
4.825
4.830
4.820
4.800
4.790
4.800
4.815
4.800
4.815
4.815
4.820
4.805
4.795
4.810
4.815
4.810
4.790
4.785
4.805
4.815
4.810
4.820
4.820
4.825
4.805
4.800
4.800
4.785
4.770
4.770
4.790
4.785
4.765
4.770
4.780
4.780
4.770
4.780
4.800
4.795
4.765
4.755
4.760
4.785
4.775
4.765
4.770
4.780
4.770
4.745
4.770
4.775
4.780
4.760
4.750
4.760
4.755
4.745
4.750
4.770
4.785
4.765
4.755
4.765
4.770
4.765
4.760
4.770
4.775
4.760
4.730
4.750
4.770
4.760
4.755
4.755
4.770
4.775
4.765
4.760
4.780
4.785
4.765
4.750
4.755
4.770
4.785
4.815
4.845
4.860
4.885
4.940
4.965
5.545
5.815
5.515
5.220
5.195
5.215
5.210
5.210
5.215
5.215
5.180
5.155
5.170
5.195
5.180
5.150
5.095
5.030
4.930
4.850
4.780
4.705
4.630
4.610
4.625
4.715
4.710
4.695
4.655
4.635
4.620
4.625
4.680
4.740
4.735
4.700
4.675
4.670
4.665
4.655
4.665
4.670
4.680
4.675
4.675
4.695
4.720
4.710
4.695
4.690
4.710
4.720
4.710
4.725
4.720
4.730
4.715
4.750
4.755
4.750
4.730
4.720
4.745
4.755
4.750
4.735
4.755
4.760
4.770
4.770
4.780
4.790
4.785
4.775
4.775
4.825
4.820
4.810
4.830
4.845
4.855
4.850
4.865
4.875
4.875
4.875
4.880
4.890
4.910
4.885
4.890
4.900
4.910
4.895
4.880
4.875
4.895
4.865
4.855
4.855
4.870
4.850
4.835
4.840
4.845
4.850
4.825
4.825
4.835
4.830
4.800
4.810
4.810
4.825
4.810
4.810
4.815
4.815
4.805
4.800
4.800
4.810
4.805
4.805
4.810
4.825
4.815
4.800
4.805
4.820
4.805
4.785
4.795
4.805
4.800
4.780
4.780
4.795
4.780
4.785
4.775
4.785
4.775
4.755
4.750
4.770
4.765
4.755
4.750
4.755
4.755
4.745
4.730
4.740
4.755
4.750
4.735
4.735
4.745
4.735
4.735
4.735
4.745
4.740
4.730
4.725
4.740
4.740
4.725
4.715
4.725
4.730
4.720
4.700
4.705
4.725
4.725
4.705
4.715
4.725
4.715
4.695
4.710
4.720
4.715
4.710
4.720
4.730
4.725
4.715
4.725
4.720
4.730
4.725
4.720
4.725
4.730
4.725
4.730
4.745
4.750
4.750
4.730
4.750
4.765
4.775
4.790
4.845
4.975
5.340
5.785
5.705
5.285
5.130
5.145
5.165
5.180
5.205
5.205
5.205
5.200
5.195
5.190
5.170
5.175
5.140
5.105
5.020
4.930
4.870
4.785
4.655
4.565
4.550
4.580
4.605
4.610
4.630
4.615
4.585
4.595
4.615
4.640
4.660
4.685
4.685
4.685
4.665
4.640
4.635
4.635
4.640
4.630
4.630
4.635
4.620
4.620
4.620
4.625
4.625
4.615
4.605
4.615
4.615
4.595
4.580
4.590
4.590
4.575
4.555
4.560
4.575
4.555
4.545
4.550
4.575
4.565
4.550
4.565
4.580
4.580
4.570
4.595
4.610
4.615
4.610
4.615
4.645
4.660
4.665
4.695
4.715
4.730
4.735
4.755
4.775
4.800
4.810
4.815
4.825
4.860
4.860
4.860
4.875
4.900
4.895
4.880
4.885
4.885
4.885
4.860
4.860
4.870
4.865
4.840
4.830
4.830
4.835
4.815
4.800
4.810
4.805
4.790
4.785
4.785
4.805
4.795
4.780
4.800
4.790
4.805
4.795
4.785
4.790
4.790
4.780
4.780
4.800
4.790
4.785
4.780
4.785
4.795
4.780
4.770
4.780
4.790
4.775
4.765
4.775
4.780
4.775
4.755
4.770
4.775
4.775
4.765
4.765
4.775
4.780
4.755
4.755
4.775
4.775
4.745
4.740
4.750
4.760
4.745
4.740
4.750
4.750
4.740
4.740
4.750
4.745
4.740
4.730
4.745
4.755
4.750
4.740
4.745
4.755
4.760
4.755
4.750
4.760
4.755
4.740
4.755
4.755
4.760
4.740
4.750
4.760
4.745
4.755
4.750
4.755
4.765
4.765
4.750
4.755
4.765
4.760
4.765
4.760
4.765
4.775
4.765
4.775
4.795
4.800
4.810
4.820
4.875
5.000
5.355
5.870
5.790
5.330
5.145
5.175
5.195
5.205
5.205
5.195
5.195
5.195
5.190
5.180
5.175
5.170
5.110
5.035
4.955
4.900
4.815
4.715
4.600
4.570
4.600
4.650
4.655
4.680
4.685
4.670
4.655
4.655
4.730
4.755
4.750
4.745
4.735
4.705
4.665
4.670
4.685
4.700
4.690
4.710
4.725
4.735
4.725
4.730
4.730
4.740
4.740
4.745
4.755
4.745
4.745
4.730
4.735
4.735
4.730
4.705
4.690
4.685
4.675
4.670
4.660
4.665
4.665
4.650
4.645
4.655
4.650
4.645
4.650
4.655
4.660
4.675
4.670
4.690
4.700
4.725
4.740
4.745
4.765
4.785
4.790
4.810
4.820
4.840
4.840
4.870
4.880
4.885
4.885
4.875
4.895
4.900
4.890
4.885
4.885
4.895
4.875
4.865
4.870
4.865
4.850
4.835
4.845
4.855
4.850
4.835
4.835
4.835
4.825
4.825
4.815
4.830
4.830
4.805
4.800
4.805
4.815
4.805
4.810
4.825
4.825
4.815
4.805
4.820
4.815
4.800
4.790
4.800
4.815
4.810
4.790
4.805
4.810
4.805
4.785
4.795
4.795
4.800
4.780
4.780
4.790
4.805
4.790
4.765
4.790
4.795
4.775
4.780
4.790
4.800
4.790
4.775
4.775
4.785
4.780
4.785
4.775
4.780
4.775
4.770
4.765
4.790
4.790
4.780
4.775
4.775
4.785
4.790
4.790
4.800
4.790
4.770
4.750
4.765
4.790
4.800
4.785
4.785
4.780
4.780
4.765
4.780
4.790
4.800
4.780
4.795
4.815
4.815
4.790
4.785
4.785
4.790
4.790
4.795
4.810
4.820
4.830
4.835
4.865
4.900
4.955
5.215
5.345
5.830
5.440
5.205
5.205
5.245
5.250
5.220
5.235
5.245
5.220
5.180
5.190
5.185
5.155
5.100
5.045
4.975
4.885
4.785
4.690
4.585
4.520
4.525
4.565
4.585
4.630
4.625
4.620
4.655
4.670
4.710
4.745
4.780
4.790
4.765
4.745
4.745
4.755
4.765
4.760
4.770
4.785
4.785
4.765
4.770
4.780
4.790
4.785
4.785
4.790
4.790
4.785
4.785
4.810
4.815
4.800
4.785
4.780
4.785
4.790
4.815
4.830
4.825
4.810
4.805
4.825
4.845
4.870
4.855
4.860
4.880
4.880
4.890
4.895
4.900
4.915
4.910
4.890
4.870
4.890
4.915
4.930
4.925
4.915
4.920
4.915
4.940
4.960
4.965
4.970
4.990
5.000
4.990
4.965
4.950
4.960
4.940
4.925
4.920
4.925
4.910
4.910
4.885
4.895
4.885
4.870
4.870
4.895
4.900
4.890
4.870
4.870
4.870
4.870
4.860
4.855
4.865
4.855
4.850
4.840
4.845
4.855
4.855
4.845
4.840
4.850
4.845
4.820
4.830
4.845
4.840
4.825
4.830
4.830
4.825
4.810
4.810
4.820
4.820
4.815
4.810
4.825
4.825
4.805
4.805
4.820
4.815
4.805
4.790
4.795
4.810
4.795
4.780
4.795
4.815
4.805
4.795
4.790
4.800
4.790
4.775
4.785
4.800
4.805
4.785
4.775
4.795
4.795
4.780
4.775
4.795
4.800
4.795
4.780
4.785
4.800
4.790
4.785
4.790
4.815
4.800
4.780
4.780
4.790
4.800
4.795
4.790
4.810
4.805
4.795
4.800
4.800
4.815
4.805
4.805
4.825
4.840
4.840
4.875
4.900
5.230
5.710
5.715
5.335
5.180
5.215
5.240
5.265
5.285
5.300
5.300
5.290
5.285
5.300
5.265
5.240
5.225
5.160
5.055
4.955
4.900
4.780
4.655
4.615
4.625
4.690
4.685
4.655
4.635
4.645
4.655
4.670
4.700
4.720
4.725
4.715
4.710
4.705
4.705
4.670
4.680
4.705
4.710
4.700
4.700
4.725
4.735
4.720
4.710
4.710
4.730
4.730
4.710
4.715
4.730
4.720
4.695
4.705
4.715
4.710
4.695
4.695
4.710
4.725
4.705
4.685
4.715
4.725
4.720
4.730
4.750
4.760
4.765
4.775
4.780
4.815
4.820
4.840
4.885
4.900
4.920
4.920
4.940
4.965
4.975
4.970
4.990
5.000
5.010
4.990
4.980
4.980
4.980
4.955
4.955
4.970
4.950
4.940
4.930
4.925
4.925
4.900
4.880
4.890
4.900
4.885
4.875
4.875
4.875
4.865
4.850
4.855
4.855
4.865
4.860
4.860
4.855
4.865
4.855
4.850
4.855
4.855
4.860
4.840
4.835
4.855
4.860
4.840
4.850
4.875
4.850
4.850
4.850
4.860
4.845
4.835
4.840
4.850
4.855
4.835
4.835
4.840
4.845
4.825
4.820
4.835
4.840
4.835
4.820
4.825
4.835
4.830
4.805
4.830
4.840
4.825
4.820
4.820
4.825
4.820
4.810
4.815
4.830
4.820
4.810
4.810
4.820
4.820
4.795
4.810
4.810
4.825
4.805
4.810
4.810
4.830
4.825
4.830
4.835
4.825
4.820
4.825
4.830
4.830
4.830
4.825
4.830
4.840
4.835
4.825
4.820
4.835
4.840
4.825
4.840
4.865
4.885
4.910
4.990
5.025
5.715
5.955
5.585
5.255
5.230
5.270
5.265
5.270
5.285
5.300
5.280
5.280
5.285
5.275
5.245
5.200
5.145
5.050
4.960
4.885
4.790
4.680
4.605
4.635
4.660
4.735
4.740
4.725
4.720
4.735
4.750
4.780
4.830
4.830
4.805
4.765
4.760
4.765
4.755
4.770
4.775
4.795
4.785
4.780
4.770
4.795
4.790
4.790
4.785
4.795
4.780
4.780
4.765
4.770
4.780
4.780
4.765
4.785
4.785
4.770
4.770
4.785
4.790
4.795
4.780
4.800
4.810
4.810
4.810
4.805
4.830
4.835
4.845
4.855
4.865
4.885
4.895
4.900
4.925
4.960
4.960
4.960
4.970
4.995
4.985
4.990
5.010
5.030
5.030
5.025
5.015
5.020
5.010
4.990
4.980
4.975
4.975
4.965
4.960
4.955
4.945
4.920
4.910
4.910
4.905
4.905
4.890
4.890
4.910
4.900
4.880
4.880
4.895
4.900
4.900
4.890
4.895
4.890
4.880
4.890
4.905
4.895
4.870
4.870
4.875
4.895
4.900
4.890
4.900
4.910
4.895
4.905
4.920
4.915
4.915
4.900
4.910
4.910
4.915
4.900
4.900
4.905
4.885
4.870
4.860
4.865
4.850
4.840
4.825
4.835
4.845
4.840
4.820
4.825
4.840
4.830
4.820
4.830
4.820
4.815
4.810
4.810
4.835
4.825
4.800
4.795
4.810
4.810
4.815
4.810
4.810
4.810
4.825
4.825
4.835
4.825
4.810
4.795
4.805
4.830
4.820
4.835
4.820
4.825
4.815
4.805
4.820
4.845
4.840
4.835
4.835
4.840
4.850
4.835
4.835
4.835
4.845
4.845
4.850
4.855
4.880
4.890
4.905
4.980
5.160
5.590
5.995
5.755
5.365
5.270
5.285
5.290
5.300
5.310
5.310
5.325
5.325
5.300
5.280
5.280
5.290
5.280
5.275
5.255
5.250
5.145
5.065
5.005
4.930
4.820
4.750
4.755
4.805
4.810
4.770
4.745
4.730
4.735
4.740
4.730
4.730
4.750
4.760
4.755
4.770
4.785
4.770
4.740
4.705
4.700
4.740
4.730
4.725
4.750
4.760
4.740
4.740
4.750
4.765
4.760
4.750
4.760
4.770
4.780
4.750
4.745
4.760
4.770
4.775
4.780
4.790
4.785
4.770
4.760
4.760
4.785
4.790
4.790
4.795
4.810
4.820
4.815
4.820
4.820
4.845
4.875
4.875
4.900
4.905
4.900
4.925
4.940
4.960
4.975
4.970
4.985
4.975
4.970
4.970
4.975
5.000
5.005
5.000
5.010
5.010
4.990
4.965
4.980
4.990
4.985
4.970
4.980
4.980
4.965
4.960
4.955
4.960
4.950
4.935
4.935
4.955
4.960
4.925
4.900
4.905
4.940
4.945
4.925
4.945
4.945
4.930
4.915
4.920
4.925
4.925
4.915
4.930
4.935
4.930
4.925
4.905
4.920
4.920
4.905
4.905
4.910
4.915
4.910
4.885
4.890
4.905
4.900
4.890
4.895
4.905
4.890
4.895
4.880
4.880
4.875
4.870
4.875
4.880
4.875
4.870
4.870
4.880
4.870
4.855
4.845
4.865
4.855
4.860
4.855
4.865
4.855
4.845
4.845
4.860
4.870
4.855
4.840
4.845
4.850
4.845
4.835
4.850
4.855
4.860
4.845
4.850
4.845
4.840
4.820
4.825
4.825
4.850
4.850
4.845
4.850
4.865
4.860
4.865
4.890
4.900
4.885
4.885
4.895
4.900
4.895
4.890
4.890
4.900
4.895
4.865
4.855
4.865
4.870
4.870
4.895
4.960
5.085
5.435
5.845
5.915
5.345
5.225
5.260
5.295
5.325
5.350
5.375
5.410
5.425
5.415
5.410
5.465
5.510
5.515
5.500
5.490
5.440
5.360
5.290
5.185
5.055
4.955
4.910
4.925
4.940
4.915
4.855
4.795
4.760
4.745
4.735
4.725
4.735
4.730
4.715
4.695
4.690
4.685
4.665
4.635
4.635
4.665
4.655
4.645
4.665
4.685
4.690
4.680
4.665
4.670
4.685
4.685
4.680
4.680
4.685
4.680
4.665
4.685
4.695
4.690
4.680
4.680
4.700
4.705
4.695
4.685
4.705
4.710
4.700
4.710
4.725
4.735
4.745
4.750
4.770
4.775
4.780
4.790
4.815
4.835
4.840
4.820
4.855
4.860
4.875
4.875
4.895
4.905
4.910
4.900
4.915
4.920
4.915
4.905
4.920
4.930
4.920
4.910
4.905
4.910
4.910
4.895
4.875
4.890
4.885
4.885
4.870
4.885
4.870
4.865
4.860
4.865
4.880
4.875
4.860
4.855
4.865
4.875
4.855
4.855
4.860
4.865
4.865
4.860
4.870
4.875
4.865
4.840
4.860
4.865
4.865
4.850
4.865
4.870
4.870
4.855
4.855
4.865
4.845
4.845
4.850
4.850
4.860
4.845
4.850
4.850
4.855
4.855
4.840
4.845
4.845
4.835
4.830
4.820
4.830
4.825
4.805
4.820
4.830
4.825
4.810
4.810
4.815
4.800
4.810
4.805
4.820
4.820
4.805
4.800
4.810
4.805
4.800
4.795
4.795
4.810
4.800
4.790
4.800
4.810
4.800
4.795
4.810
4.820
4.800
4.790
4.795
4.805
4.805
4.800
4.810
4.810
4.815
4.800
4.810
4.810
4.810
4.810
4.800
4.805
4.830
4.820
4.810
4.835
4.850
4.845
4.860
4.930
5.045
5.390
5.820
5.710
5.350
5.220
5.255
5.275
5.290
5.300
5.300
5.300
5.290
5.275
5.280
5.270
5.270
5.255
5.205
5.095
5.010
4.940
4.840
4.730
4.715
4.760
4.805
4.800
4.775
4.750
4.725
4.715
4.740
4.750
4.750
4.740
4.735
4.730
4.710
4.685
4.675
4.680
4.695
4.700
4.675
4.690
4.695
4.690
4.680
4.690
4.690
4.685
4.670
4.680
4.675
4.670
4.665
4.665
4.670
4.670
4.650
4.660
4.665
4.670
4.660
4.665
4.670
4.675
4.685
4.675
4.700
4.705
4.715
4.705
4.730
4.750
4.755
4.770
4.790
4.805
4.805
4.820
4.840
4.865
4.880
4.870
4.895
4.920
4.930
4.945
4.955
4.960
4.975
4.975
4.965
4.970
4.980
4.980
4.970
4.975
4.970
4.970
4.960
4.955
4.960
4.945
4.935
4.925
4.915
4.920
4.905
4.905
4.910
4.900
4.890
4.890
4.890
4.890
4.890
4.875
4.885
4.890
4.895
4.875
4.880
4.885
4.880
4.875
4.880
4.885
4.880
4.875
4.875
4.900
4.900
4.880
4.870
4.870
4.875
4.880
4.875
4.870
4.880
4.890
4.880
4.900
4.905
4.880
4.875
4.885
4.890
4.880
4.870
4.860
4.865
4.860
4.865
4.865
4.870
4.865
4.865
4.855
4.860
4.870
4.860
4.850
4.855
4.875
4.865
4.845
4.850
4.860
4.855
4.835
4.845
4.850
4.865
4.860
4.870
4.875
4.870
4.860
4.870
4.875
4.875
4.875
4.875
4.875
4.875
4.860
4.850
4.865
4.875
4.880
4.880
4.890
4.895
4.885
4.865
4.885
4.895
4.900
4.900
4.915
4.925
4.940
4.975
5.085
5.415
5.915
5.860
5.435
5.290
5.320
5.335
5.340
5.345
5.375
5.370
5.350
5.365
5.380
5.370
5.345
5.345
5.325
5.200
5.100
5.035
4.945
4.815
4.750
4.775
4.815
4.815
4.770
4.730
4.705
4.720
4.745
4.775
4.790
4.795
4.780
4.770
4.780
4.785
4.775
4.755
4.765
4.775
4.790
4.800
4.835
4.870
4.865
4.850
4.840
4.880
4.890
4.895
4.900
4.890
4.890
4.875
4.870
4.865
4.865
4.845
4.840
4.825
4.805
4.810
4.815
4.805
4.795
4.780
4.780
4.810
4.830
4.840
4.820
4.820
4.820
4.825
4.825
4.840
4.860
4.880
4.895
4.915
4.915
4.935
4.935
4.960
5.000
5.020
5.035
5.030
5.045
5.045
5.040
5.040
5.070
5.085
5.060
5.035
5.035
5.050
5.045
5.035
5.035
5.040
5.015
5.015
4.995
4.985
5.000
4.985
4.975
4.970
4.965
4.965
4.955
4.965
4.970
4.965
4.940
4.930
4.940
4.955
4.960
4.970
4.990
4.970
4.960
4.950
4.960
4.960
4.950
4.950
4.950
4.945
4.945
4.935
4.935
4.945
4.945
4.930
4.935
4.945
4.945
4.935
4.930
4.935
4.935
4.925
4.930
4.925
4.925
4.930
4.920
4.920
4.930
4.915
4.920
4.920
4.940
4.920
4.910
4.930
4.925
4.910
4.910
4.920
4.925
4.920
4.915
4.920
4.925
4.925
4.910
4.915
4.925
4.925
4.915
4.915
4.920
4.930
4.920
4.905
4.910
4.925
4.920
4.905
4.925
4.935
4.925
4.920
4.930
4.930
4.930
4.930
4.925
4.950
4.945
4.950
4.975
5.020
5.110
5.350
5.880
6.090
5.675
5.340
5.340
5.365
5.420
5.420
5.435
5.460
5.455
5.420
5.420
5.435
5.420
5.385
5.330
5.260
5.170
5.090
4.980
4.850
4.800
4.805
4.845
4.845
4.840
4.800
4.780
4.765
4.770
4.810
4.825
4.840
4.845
4.835
4.830
4.800
4.790
4.790
4.800
4.810
4.810
4.820
4.830
4.830
4.835
4.840
4.845
4.835
4.840
4.845
4.850
4.830
4.835
4.835
4.840
4.830
4.830
4.840
4.840
4.825
4.815
4.825
4.835
4.825
4.815
4.830
4.850
4.870
4.875
4.880
4.900
4.920
4.930
4.950
4.970
4.975
4.980
4.995
5.005
5.025
5.030
5.035
5.040
5.045
5.035
5.025
5.055
5.060
5.065
5.065
5.065
5.070
5.060
5.060
5.045
5.045
5.045
5.030
5.025
5.030
5.010
5.005
4.990
4.990
4.985
4.975
4.970
4.975
4.970
4.975
4.965
4.965
4.965
4.970
4.950
4.950
4.960
4.965
4.945
4.950
4.955
4.955
4.940
4.940
4.950
4.950
4.940
4.930
4.925
4.930
4.930
4.920
4.930
4.925
4.920
4.905
4.910
4.905
4.905
4.895
4.905
4.915
4.910
4.900
4.900
4.905
4.910
4.905
4.895
4.895
4.905
4.895
4.895
4.900
4.910
4.905
4.890
4.900
4.900
4.895
4.890
4.905
4.900
4.895
4.905
4.905
4.905
4.905
4.895
4.885
4.905
4.910
4.890
4.885
4.900
4.910
4.900
4.885
4.890
4.915
4.905
4.895
4.910
4.935
4.915
4.900
4.915
4.915
4.925
4.910
4.910
4.935
4.930
4.925
4.930
4.955
4.960
4.965
5.015
5.125
5.420
5.890
5.885
5.785
5.345
5.350
5.350
5.365
5.365
5.370
5.350
5.355
5.350
5.335
5.325
5.320
5.280
5.220
5.135
5.065
5.000
4.910
4.780
4.680
4.685
4.750
4.785
4.810
4.820
4.825
4.820
4.815
4.860
4.905
4.920
4.910
4.900
4.890
4.860
4.840
4.850
4.865
4.880
4.875
4.880
4.885
4.890
4.880
4.885
4.895
4.905
4.895
4.880
4.880
4.890
4.890
4.870
4.875
4.890
4.875
4.855
4.880
4.890
4.885
4.875
4.890
4.895
4.900
4.895
4.895
4.910
4.925
4.915
4.910
4.935
4.945
4.945
4.950
4.960
4.980
4.985
4.985
5.015
5.035
5.045
5.035
5.060
5.075
5.080
5.085
5.095
5.115
5.105
5.095
5.110
5.110
5.105
5.100
5.095
5.115
5.115
5.110
5.090
5.090
5.100
5.090
5.080
5.095
5.085
5.060
5.050
5.050
5.055
5.035
5.005
5.005
5.000
4.980
4.975
4.975
4.970
4.965
4.945
4.945
4.945
4.945
4.950
4.945
4.945
4.970
4.950
4.940
4.945
4.940
4.945
4.930
4.935
4.940
4.930
4.915
4.920
4.925
4.920
4.910
4.905
4.925
4.925
4.900
4.890
4.905
4.910
4.900
4.890
4.895
4.920
4.915
4.890
4.900
4.910
4.875
4.850
4.870
4.885
4.880
4.885
4.910
4.920
4.910
4.895
4.900
4.910
4.910
4.895
4.890
4.905
4.905
4.905
4.895
4.905
4.920
4.910
4.900
4.920
4.935
4.940
4.925
4.935
4.945
4.955
4.940
4.940
4.940
4.930
4.930
4.940
4.945
4.955
4.945
4.960
4.975
5.000
5.015
5.090
5.120
5.785
5.930
5.545
5.355
5.375
5.410
5.430
5.435
5.450
5.430
5.395
5.370
5.420
5.455
5.440
5.440
5.420
5.350
5.255
5.185
5.100
4.970
4.855
4.850
4.870
4.910
4.875
4.840
4.810
4.785
4.780
4.785
4.805
4.820
4.825
4.825
4.850
4.840
4.810
4.785
4.800
4.850
4.860
4.840
4.820
4.820
4.825
4.845
4.870
4.875
4.875
4.855
4.855
4.870
4.875
4.870
4.850
4.855
4.860
4.855
4.850
4.855
4.845
4.855
4.850
4.860
4.865
4.875
4.855
4.865
4.895
4.910
4.915
4.925
4.930
4.950
4.955
4.960
4.990
5.010
4.995
4.990
5.025
5.050
5.055
5.050
5.035
5.060
5.080
5.090
5.095
5.105
5.115
5.130
5.140
5.125
5.100
5.065
5.065
5.075
5.105
5.085
5.055
5.065
5.065
5.055
5.045
5.050
5.050
5.020
5.020
5.030
5.030
5.010
4.995
5.000
5.020
5.005
4.980
4.985
4.995
4.990
4.975
4.960
4.960
4.955
4.940
4.945
4.970
4.970
4.955
4.930
4.945
4.955
4.940
4.940
4.940
4.940
4.920
4.915
4.945
4.950
4.940
4.915
4.900
4.910
4.915
4.915
4.900
4.900
4.915
4.915
4.925
4.925
4.905
4.900
4.905
4.910
4.905
4.895
4.920
4.920
4.905
4.880
4.885
4.915
4.925
4.915
4.895
4.915
4.915
4.920
4.915
4.910
4.910
4.925
4.920
4.910
4.905
4.920
4.900
4.895
4.905
4.920
4.915
4.910
4.915
4.935
4.935
4.915
4.920
4.930
4.935
4.935
4.935
4.945
4.950
4.950
4.985
5.005
5.130
5.380
5.885
5.965
5.575
5.370
5.370
5.410
5.420
5.425
5.430
5.445
5.425
5.395
5.390
5.385
5.375
5.350
5.295
5.215
5.115
5.030
4.950
4.805
4.765
4.645
4.680
4.715
4.730
4.700
4.680
4.650
4.685
4.725
4.740
4.750
4.760
4.775
4.795
4.785
4.780
4.780
4.765
4.770
4.790
4.795
4.805
4.800
4.810
4.815
4.820
4.815
4.805
4.810
4.810
4.800
4.790
4.795
4.800
4.790
4.765
4.770
4.780
4.770
4.760
4.775
4.780
4.780
4.770
4.765
4.780
4.785
4.780
4.780
4.795
4.815
4.815
4.810
4.835
4.865
4.870
4.875
4.900
4.915
4.935
4.925
4.950
4.975
4.990
4.995
5.005
5.020
5.030
5.025
5.035
5.045
5.050
5.035
5.025
5.030
5.040
5.030
5.010
5.015
5.020
5.000
4.985
4.995
4.985
4.995
4.980
4.985
4.995
4.985
4.985
4.975
4.970
4.965
4.965
4.955
4.970
4.965
4.945
4.930
4.935
4.925
4.915
4.905
4.910
4.925
4.915
4.910
4.905
4.910
4.900
4.900
4.895
4.890
4.880
4.890
4.890
4.890
4.890
4.870
4.860
4.880
4.880
4.855
4.865
4.860
4.860
4.850
4.840
4.845
4.840
4.845
4.840
4.840
4.845
4.840
4.830
4.835
4.845
4.845
4.830
4.825
4.835
4.835
4.835
4.840
4.840
4.835
4.825
4.840
4.840
4.845
4.835
4.825
4.835
4.835
4.835
4.820
4.825
4.835
4.830
4.840
4.845
4.845
4.845
4.830
4.830
4.840
4.830
4.830
4.830
4.845
4.855
4.830
4.830
4.830
4.850
4.845
4.830
4.855
4.870
4.860
4.850
4.865
4.865
4.870
4.875
4.895
4.955
5.055
5.310
5.815
5.965
5.600
5.320
5.295
5.310
5.320
5.325
5.330
5.345
5.365
5.365
5.340
5.335
5.345
5.350
5.330
5.330
5.330
5.285
5.190
5.125
5.070
4.995
4.870
4.775
4.770
4.805
4.840
4.840
4.820
4.780
4.750
4.735
4.735
4.755
4.765
4.755
4.760
4.770
4.765
4.755
4.755
4.740
4.715
4.705
4.735
4.740
4.740
4.730
4.750
4.760
4.750
4.750
4.740
4.755
4.760
4.760
4.750
4.755
4.755
4.730
4.730
4.750
4.755
4.745
4.735
4.740
4.745
4.740
4.740
4.735
4.750
4.755
4.745
4.750
4.765
4.765
4.770
4.770
4.800
4.795
4.795
4.820
4.830
4.850
4.850
4.870
4.875
4.900
4.905
4.920
4.935
4.945
4.950
4.960
4.965
4.985
5.005
5.000
5.000
5.015
5.005
5.015
5.010
5.025
5.020
5.005
5.000
4.995
5.005
4.990
4.965
4.980
4.985
4.960
4.950
4.960
4.965
4.955
4.945
4.950
4.945
4.935
4.925
4.935
4.935
4.935
4.925
4.925
4.940
4.940
4.930
4.920
4.925
4.915
4.920
4.915
4.925
4.930
4.925
4.910
4.920
4.920
4.910
4.905
4.905
4.905
4.895
4.880
4.870
4.870
4.865
4.860
4.855
4.865
4.875
4.870
4.885
4.890
4.915
4.895
4.885
4.905
4.910
4.910
4.895
4.895
4.900
4.905
4.895
4.900
4.895
4.870
4.840
4.830
4.840
4.830
4.830
4.825
4.830
4.830
4.820
4.830
4.835
4.840
4.840
4.820
4.835
4.835
4.825
4.810
4.815
4.825
4.820
4.820
4.835
4.855
4.845
4.840
4.840
4.840
4.830
4.830
4.830
4.835
4.840
4.855
4.860
4.865
4.860
4.850
4.845
4.875
4.900
4.905
4.910
4.980
5.115
5.485
5.940
5.845
5.460
5.280
5.295
5.320
5.345
5.365
5.350
5.370
5.385
5.365
5.350
5.360
5.370
5.375
5.360
5.345
5.285
5.190
5.110
5.035
4.930
4.815
4.750
4.745
4.780
4.795
4.785
4.770
4.735
4.720
4.715
4.720
4.725
4.740
4.740
4.725
4.740
4.740
4.740
4.725
4.730
4.745
4.765
4.755
4.725
4.730
4.740
4.740
4.740
4.755
4.770
4.775
4.765
4.770
4.780
4.790
4.760
4.750
4.750
4.760
4.760
4.755
4.750
4.750
4.740
4.755
4.780
4.785
4.780
4.780
4.810
4.825
4.835
4.840
4.850
4.865
4.860
4.840
4.880
4.910
4.930
4.920
4.910
4.930
4.960
4.980
4.980
4.985
4.995
4.980
4.990
5.000
5.025
5.015
4.990
4.995
4.995
4.980
4.970
4.975
4.970
4.955
4.950
4.970
4.980
4.965
4.945
4.940
4.955
4.940
4.925
4.915
4.925
4.935
4.920
4.920
4.940
4.945
4.935
4.910
4.930
4.925
4.905
4.890
4.910
4.925
4.900
4.890
4.905
4.920
4.890
4.875
4.905
4.935
4.935
4.900
4.885
4.890
4.910
4.915
4.910
4.925
4.925
4.905
4.880
4.875
4.870
4.875
4.855
4.855
4.870
4.890
4.890
4.880
4.880
4.880
4.840
4.820
4.830
4.865
4.870
4.865
4.870
4.870
4.860
4.850
4.865
4.870
4.880
4.885
4.895
4.885
4.880
4.880
4.900
4.895
4.870
4.855
4.865
4.890
4.895
4.875
4.865
4.890
4.910
4.910
4.890
4.900
4.910
4.910
4.910
4.920
4.920
4.915
4.900
4.910
4.920
4.915
4.890
4.890
4.885
4.905
4.905
4.905
4.940
4.985
5.105
5.485
5.895
5.710
5.340
5.275
5.290
5.365
5.380
5.415
5.455
5.475
5.460
5.450
5.490
5.520
5.520
5.515
5.495
5.445
5.345
5.265
5.185
5.055
4.895
4.800
4.820
4.855
4.830
4.770
4.730
4.720
4.685
4.695
4.715
4.735
4.740
4.730
4.720
4.710
4.710
4.675
4.655
4.680
4.700
4.695
4.685
4.700
4.715
4.720
4.700
4.690
4.720
4.715
4.705
4.705
4.710
4.710
4.695
4.705
4.705
4.705
4.690
4.685
4.705
4.705
4.685
4.690
4.695
4.710
4.705
4.705
4.720
4.735
4.735
4.740
4.750
4.775
4.790
4.800
4.810
4.820
4.850
4.845
4.860
4.880
4.890
4.890
4.890
4.900
4.905
4.905
4.910
4.930
4.920
4.910
4.905
4.905
4.905
4.890
4.885
4.885
4.885
4.880
4.865
4.865
4.865
4.860
4.850
4.850
4.865
4.855
4.850
4.845
4.850
4.850
4.845
4.835
4.835
4.845
4.840
4.830
4.840
4.850
4.850
4.835
4.830
4.845
4.845
4.840
4.840
4.845
4.855
4.840
4.830
4.855
4.860
4.840
4.835
4.840
4.840
4.840
4.820
4.830
4.835
4.825
4.805
4.815
4.830
4.820
4.805
4.805
4.820
4.815
4.790
4.800
4.805
4.805
4.800
4.780
4.795
4.800
4.790
4.785
4.800
4.795
4.790
4.780
4.785
4.790
4.795
4.775
4.785
4.795
4.780
4.770
4.770
4.785
4.785
4.770
4.770
4.775
4.775
4.775
4.770
4.780
4.790
4.780
4.775
4.780
4.785
4.780
4.775
4.780
4.790
4.785
4.795
4.795
4.810
4.805
4.815
4.845
4.900
5.030
5.385
5.790
5.865
5.365
5.240
5.250
5.275
5.280
5.290
5.295
5.315
5.320
5.315
5.310
5.320
5.310
5.290
5.255
5.215
5.115
5.015
4.925
4.800
4.705
4.660
4.680
4.730
4.750
4.760
4.730
4.700
4.695
4.695
4.710
4.700
4.700
4.695
4.680
4.660
4.640
4.630
4.600
4.610
4.620
4.625
4.615
4.610
4.605
4.625
4.625
4.610
4.620
4.620
4.625
4.615
4.615
4.620
4.625
4.620
4.610
4.625
4.630
4.615
4.610
4.625
4.640
4.630
4.625
4.640
4.645
4.655
4.655
4.660
4.675
4.685
4.695
4.710
4.715
4.750
4.750
4.770
4.785
4.795
4.815
4.815
4.830
4.850
4.850
4.860
4.875
4.885
4.885
4.885
4.890
4.890
4.885
4.875
4.865
4.880
4.880
4.875
4.850
4.855
4.860
4.855
4.835
4.845
4.835
4.815
4.805
4.835
4.840
4.820
4.810
4.815
4.820
4.820
4.810
4.825
4.840
4.820
4.805
4.805
4.825
4.825
4.805
4.805
4.810
4.825
4.810
4.795
4.810
4.800
4.790
4.780
4.790
4.795
4.785
4.775
4.780
4.785
4.785
4.790
4.790
4.795
4.785
4.765
4.765
4.775
4.780
4.775
4.780
4.790
4.785
4.755
4.740
4.755
4.760
4.750
4.735
4.750
4.755
4.740
4.730
4.750
4.765
4.760
4.765
4.775
4.780
4.770
4.755
4.765
4.780
4.760
4.755
4.745
4.750
4.780
4.780
4.765
4.760
4.770
4.755
4.740
4.765
4.770
4.760
4.750
4.775
4.775
4.780
4.795
4.790
4.800
4.795
4.795
4.825
4.900
5.065
5.485
5.800
5.820
5.245
5.195
5.215
5.240
5.250
5.270
5.270
5.265
5.245
5.225
5.215
5.220
5.230
5.210
5.150
5.045
4.955
4.875
4.740
4.610
4.580
4.630
4.660
4.650
4.645
4.605
4.580
4.590
4.620
4.635
4.665
4.680
4.695
4.700
4.690
4.655
4.650
4.640
4.665
4.675
4.685
4.675
4.630
4.615
4.630
4.655
4.670
4.660
4.665
4.670
4.675
4.635
4.625
4.640
4.625
4.620
4.600
4.610
4.605
4.590
4.595
4.640
4.660
4.655
4.650
4.640
4.665
4.675
4.670
4.665
4.685
4.700
4.725
4.745
4.755
4.770
4.780
4.815
4.855
4.870
4.865
4.895
4.925
4.930
4.920
4.920
4.930
4.940
4.935
4.930
4.930
4.930
4.910
4.895
4.910
4.905
4.880
4.855
4.870
4.875
4.860
4.830
4.820
4.830
4.835
4.825
4.820
4.835
4.835
4.815
4.795
4.785
4.795
4.800
4.800
4.810
4.810
4.805
4.780
4.760
4.735
4.700
4.670
4.650
4.645
4.605
4.560
4.530
4.545
4.565
4.590
4.645
4.695
4.715
4.760
4.860
5.020
5.155
5.230
5.280
5.320
5.260
5.100
4.800
4.475
4.255
4.160
4.130
4.085
4.080
4.205
4.290
4.385
4.480
4.530
4.555
4.595
4.640
4.650
4.645
4.650
4.660
4.675
4.675
4.670
4.675
4.680
4.680
4.675
4.685
4.700
4.710
4.700
4.715
4.720
4.735
4.735
4.735
4.760
4.755
4.765
4.755
4.775
4.780
4.780
4.775
4.790
4.790
4.790
4.775
4.780
4.790
4.780
4.755
4.760
4.770
4.765
4.760
4.755
4.770
4.770
4.765
4.765
4.785
4.795
4.790
4.790
4.800
4.810
4.805
4.795
4.800
4.790
4.790
4.775
4.775
4.780
4.780
4.765
4.770
4.770
4.770
4.765
4.765
4.770
4.760
4.755
4.755
4.760
4.755
4.740
4.735
4.740
4.745
4.735
4.740
4.740
4.745
4.745
4.730
4.725
4.740
4.715
4.715
4.740
4.755
4.755
4.745
4.745
4.750
4.765
4.765
4.770
4.780
4.780
4.765
4.770
4.775
4.780
4.765
4.745
4.745
4.740
4.725
4.720
4.740
4.735
4.735
4.720
4.725
4.730
4.725
4.710
4.720
4.715
4.735
4.730
4.720
4.730
4.735
4.715
4.720
4.730
4.730
4.720
4.725
4.725
4.735
4.720
4.715
4.730
4.740
4.720
4.700
4.705
4.725
4.720
4.710
4.715
4.725
4.725
4.715
4.715
4.730
4.715
4.715
4.705
4.720
4.725
4.715
4.705
4.715
4.725
4.715
4.700
4.715
4.725
4.720
4.715
4.725
4.730
4.735
4.725
4.725
4.725
4.735
4.730
4.730
4.745
4.750
4.745
4.735
4.750
4.760
4.755
4.750
4.755
4.770
4.760
4.755
4.770
4.785
4.795
4.810
4.865
4.965
5.245
5.750
5.850
5.775
5.210
5.205
5.230
5.255
5.260
5.275
5.285
5.285
5.275
5.265
5.275
5.295
5.290
5.285
5.250
5.190
5.135
5.070
4.965
4.860
4.830
4.860
4.890
4.880
4.875
4.810
4.755
4.730
4.740
4.725
4.690
4.670
4.685
4.695
4.680
4.650
4.625
4.620
4.615
4.620
4.630
4.635
4.640
4.635
4.640
4.655
4.655
4.640
4.645
4.650
4.655
4.645
4.640
4.660
4.665
4.655
4.640
4.660
4.660
4.665
4.655
4.675
4.690
4.685
4.680
4.705
4.710
4.700
4.705
4.720
4.730
4.745
4.750
4.760
4.765
4.805
4.805
4.815
4.840
4.850
4.850
4.865
4.890
4.900
4.895
4.900
4.910
4.935
4.940
4.930
4.945
4.945
4.950
4.945
4.960
4.965
4.955
4.940
4.935
4.930
4.935
4.935
4.910
4.920
4.930
4.915
4.900
4.910
4.915
4.895
4.885
4.885
4.885
4.885
4.870
4.870
4.880
4.870
4.855
4.860
4.875
4.865
4.860
4.850
4.850
4.850
4.835
4.830
4.840
4.835
4.825
4.820
4.835
4.835
4.830
4.840
4.855
4.850
4.855
4.840
4.855
4.860
4.840
4.835
4.830
4.840
4.830
4.810
4.815
4.815
4.795
4.770
4.770
4.795
4.785
4.780
4.770
4.780
4.785
4.760
4.755
4.765
4.755
4.760
4.760
4.775
4.785
4.780
4.750
4.755
4.770
4.760
4.760
4.760
4.765
4.770
4.755
4.750
4.765
4.765
4.760
4.755
4.775
4.780
4.770
4.760
4.770
4.775
4.765
4.765
4.755
4.780
4.785
4.785
4.800
4.810
4.815
4.810
4.825
4.835
4.930
5.075
5.535
5.865
5.585
5.230
5.150
5.220
5.240
5.255
5.280
5.310
5.305
5.265
5.255
5.270
5.275
5.255
5.225
5.195
5.135
5.040
4.960
4.845
4.805
4.670
4.680
4.730
4.750
4.735
4.700
4.655
4.650
4.655
4.655
4.665
4.690
4.700
4.700
4.700
4.695
4.695
4.655
4.645
4.680
4.710
4.705
4.685
4.675
4.675
4.715
4.715
4.720
4.730
4.720
4.720
4.705
4.705
4.710
4.705
4.710
4.720
4.730
4.735
4.725
4.730
4.735
4.740
4.750
4.760
4.785
4.775
4.775
4.795
4.805
4.815
4.800
4.820
4.855
4.885
4.895
4.910
4.930
4.940
4.945
4.960
4.980
4.995
5.005
4.995
5.030
5.030
5.015
5.000
4.990
4.995
4.995
5.005
5.015
5.020
5.000
4.970
4.970
4.980
4.985
4.965
4.950
4.970
4.965
4.950
4.940
4.935
4.945
4.940
4.950
4.955
4.945
4.945
4.940
4.955
4.955
4.920
4.900
4.920
4.940
4.965
4.935
4.920
4.935
4.945
4.935
4.910
4.910
4.915
4.915
4.930
4.945
4.945
4.930
4.910
4.910
4.920
4.910
4.900
4.895
4.910
4.915
4.900
4.895
4.905
4.960
4.945
4.920
4.915
4.925
4.910
4.885
4.885
4.875
4.865
4.865
4.890
4.910
4.910
4.920
4.925
4.925
4.920
4.905
4.905
4.915
4.910
4.885
4.870
4.870
4.860
4.870
4.880
4.890
4.905
4.885
4.900
4.935
4.945
4.935
4.925
4.945
4.945
4.935
4.950
4.975
4.990
4.960
4.930
4.945
4.960
4.935
4.905
4.905
4.910
4.920
4.905
4.900
4.915
4.930
4.930
4.925
4.935
4.945
4.955
4.975
5.040
5.155
5.485
5.885
5.820
5.475
5.330
5.345
5.375
5.405
5.440
5.465
5.490
5.510
5.530
5.530
5.555
5.595
5.625
5.615
5.590
5.580
5.530
5.425
5.330
5.260
5.155
4.995
4.890
4.880
4.900
4.905
4.870
4.835
4.810
4.750
4.725
4.730
4.745
4.780
4.785
4.780
4.785
4.785
4.780
4.750
4.755
4.760
4.750
4.760
4.770
4.785
4.790
4.790
4.810
4.805
4.800
4.795
4.795
4.805
4.805
4.795
4.790
4.785
4.800
4.790
4.775
4.795
4.795
4.775
4.775
4.780
4.780
4.775
4.765
4.775
4.795
4.795
4.795
4.810
4.820
4.830
4.835
4.835
4.860
4.860
4.865
4.880
4.890
4.920
4.910
4.930
4.945
4.970
4.955
4.955
4.985
4.995
4.995
4.985
5.005
5.005
4.995
4.990
4.995
5.005
4.990
4.975
4.975
4.995
4.975
4.955
4.950
4.965
4.950
4.945
4.930
4.930
4.945
4.930
4.930
4.935
4.945
4.935
4.925
4.930
4.940
4.930
4.920
4.925
4.925
4.925
4.920
4.920
4.935
4.920
4.915
4.920
4.920
4.925
4.915
4.915
4.925
4.920
4.925
4.915
4.920
4.925
4.915
4.910
4.920
4.915
4.915
4.910
4.910
4.925
4.915
4.910
4.900
4.910
4.905
4.875
4.895
4.895
4.895
4.885
4.875
4.895
4.900
4.880
4.875
4.890
4.895
4.870
4.865
4.875
4.885
4.880
4.855
4.865
4.885
4.880
4.860
4.880
4.885
4.870
4.865
4.875
4.880
4.880
4.870
4.865
4.885
4.885
4.880
4.865
4.865
4.880
4.875
4.860
4.860
4.870
4.885
4.870
4.865
4.885
4.875
4.875
4.870
4.885
4.885
4.875
4.875
4.880
4.900
4.890
4.885
4.905
4.935
4.965
5.060
5.365
5.860
5.915
5.545
5.335
5.330
5.365
5.365
5.390
5.405
5.415
5.395
5.370
5.385
5.385
5.365
5.345
5.340
5.240
5.125
5.055
5.010
4.910
4.785
4.725
4.785
4.825
4.865
4.870
4.855
4.820
4.790
4.780
4.800
4.820
4.805
4.790
4.775
4.785
4.750
4.725
4.710
4.715
4.720
4.725
4.720
4.725
4.730
4.730
4.725
4.740
4.750
4.730
4.720
4.730
4.745
4.735
4.735
4.735
4.745
4.745
4.735
4.730
4.745
4.745
4.735
4.735
4.740
4.755
4.755
4.745
4.760
4.780
4.775
4.775
4.800
4.810
4.810
4.820
4.845
4.860
4.850
4.870
4.885
4.915
4.925
4.915
4.930
4.950
4.955
4.970
4.970
4.980
4.995
4.985
4.980
5.000
5.000
4.990
4.975
4.980
4.980
4.960
4.945
4.950
4.955
4.955
4.935
4.930
4.950
4.940
4.920
4.920
4.935
4.930
4.915
4.915
4.920
4.915
4.910
4.910
4.915
4.920
4.905
4.910
4.920
4.925
4.920
4.905
4.905
4.920
4.920
4.905
4.915
4.920
4.910
4.905
4.910
4.915
4.910
4.900
4.890
4.895
4.900
4.885
4.880
4.890
4.900
4.875
4.875
4.880
4.890
4.880
4.865
4.895
4.885
4.890
4.880
4.885
4.885
4.870
4.865
4.865
4.885
4.875
4.865
4.855
4.860
4.870
4.865
4.855
4.875
4.885
4.875
4.865
4.870
4.880
4.870
4.860
4.875
4.875
4.870
4.860
4.860
4.875
4.870
4.865
4.855
4.860
4.865
4.845
4.840
4.845
4.845
4.855
4.850
4.870
4.870
4.865
4.865
4.875
4.880
4.865
4.855
4.880
4.915
4.935
4.975
5.095
5.490
6.010
5.880
5.425
5.280
5.320
5.330
5.330
5.340
5.355
5.340
5.320
5.340
5.365
5.330
5.295
5.255
5.165
5.040
4.960
4.855
4.765
4.735
4.770
4.810
4.810
4.780
4.740
4.730
4.755
4.795
4.805
4.805
4.800
4.800
4.780
4.745
4.725
4.710
4.710
4.710
4.730
4.745
4.750
4.750
4.750
4.765
4.755
4.745
4.745
4.755
4.740
4.695
4.705
4.720
4.735
4.705
4.710
4.715
4.715
4.700
4.690
4.730
4.755
4.760
4.755
4.770
4.770
4.775
4.765
4.800
4.825
4.850
4.850
4.870
4.885
4.895
4.905
4.935
4.965
4.985
4.980
4.990
5.000
5.020
5.015
5.020
5.035
5.025
5.015
5.000
5.010
5.010
5.000
4.985
4.980
4.975
4.950
4.950
4.945
4.950
4.940
4.930
4.930
4.940
4.925
4.915
4.910
4.915
4.900
4.885
4.885
4.890
4.890
4.875
4.890
4.910
4.920
4.915
4.915
4.910
4.905
4.895
4.895
4.900
4.890
4.885
4.875
4.880
4.890
4.895
4.875
4.875
4.875
4.890
4.875
4.860
4.870
4.860
4.860
4.850
4.870
4.875
4.850
4.825
4.840
4.865
4.865
4.850
4.860
4.860
4.850
4.835
4.840
4.840
4.845
4.845
4.835
4.830
4.830
4.820
4.835
4.845
4.840
4.820
4.825
4.860
4.870
4.850
4.820
4.825
4.850
4.850
4.835
4.810
4.810
4.820
4.830
4.835
4.840
4.835
4.830
4.830
4.840
4.855
4.860
4.845
4.845
4.835
4.840
4.830
4.850
4.845
4.860
4.880
4.920
4.970
5.020
5.165
5.595
5.940
5.710
5.345
5.255
5.310
5.335
5.350
5.355
5.365
5.380
5.365
5.355
5.360
5.330
5.300
5.240
5.140
5.010
4.925
4.810
4.695
4.640
4.645
4.655
4.670
4.650
4.625
4.600
4.620
4.665
4.700
4.730
4.745
4.755
4.775
4.770
4.755
4.755
4.760
4.785
4.795
4.805
4.810
4.810
4.800
4.790
4.800
4.795
4.795
4.780
4.785
4.790
4.770
4.770
4.770
4.760
4.745
4.740
4.735
4.745
4.725
4.715
4.725
4.725
4.725
4.715
4.735
4.740
4.735
4.730
4.740
4.765
4.770
4.780
4.795
4.820
4.825
4.830
4.855
4.900
4.905
4.905
4.925
4.940
4.970
4.970
4.970
4.995
5.005
5.005
5.005
5.005
5.015
5.010
4.985
4.990
4.995
4.975
4.960
4.955
4.950
4.930
4.920
4.910
4.930
4.900
4.895
4.885
4.890
4.900
4.885
4.880
4.895
4.895
4.880
4.860
4.880
4.890
4.870
4.865
4.885
4.875
4.880
4.865
4.870
4.875
4.865
4.860
4.860
4.865
4.865
4.850
4.855
4.850
4.865
4.850
4.850
4.855
4.850
4.840
4.835
4.850
4.850
4.835
4.815
4.835
4.840
4.825
4.810
4.820
4.830
4.820
4.810
4.815
4.835
4.820
4.815
4.810
4.815
4.825
4.815
4.820
4.830
4.830
4.830
4.820
4.825
4.820
4.820
4.810
4.815
4.825
4.820
4.810
4.825
4.830
4.830
4.815
4.825
4.845
4.835
4.825
4.820
4.825
4.835
4.825
4.825
4.840
4.835
4.835
4.830
4.850
4.860
4.850
4.855
4.890
4.940
5.015
5.275
5.770
5.810
5.445
5.255
5.260
5.315
5.310
5.320
5.340
5.350
5.345
5.330
5.330
5.345
5.325
5.285
5.240
5.155
5.065
4.990
4.875
4.765
4.715
4.725
4.755
4.755
4.745
4.720
4.690
4.700
4.725
4.740
4.740
4.745
4.755
4.765
4.750
4.735
4.750
4.745
4.765
4.770
4.770
4.770
4.760
4.760
4.770
4.780
4.775
4.745
4.735
4.730
4.715
4.695
4.710
4.710
4.700
4.680
4.675
4.675
4.675
4.665
4.645
4.650
4.660
4.655
4.645
4.655
4.660
4.655
4.650
4.675
4.690
4.700
4.695
4.725
4.755
4.750
4.765
4.780
4.810
4.835
4.850
4.855
4.870
4.910
4.920
4.935
4.960
4.965
4.970
4.965
4.985
4.995
4.985
4.970
4.980
4.985
4.970
4.955
4.945
4.955
4.940
4.925
4.920
4.930
4.920
4.905
4.900
4.905
4.895
4.890
4.875
4.890
4.895
4.885
4.875
4.895
4.895
4.885
4.880
4.890
4.890
4.880
4.875
4.880
4.890
4.875
4.860
4.865
4.895
4.875
4.860
4.870
4.870
4.870
4.860
4.850
4.860
4.865
4.845
4.840
4.860
4.865
4.850
4.840
4.850
4.855
4.845
4.840
4.835
4.855
4.830
4.825
4.825
4.835
4.840
4.825
4.830
4.835
4.835
4.830
4.815
4.830
4.820
4.825
4.820
4.830
4.835
4.820
4.815
4.830
4.840
4.840
4.830
4.840
4.850
4.840
4.825
4.825
4.840
4.840
4.825
4.830
4.835
4.840
4.825
4.825
4.845
4.840
4.840
4.835
4.850
4.855
4.840
4.845
4.855
4.865
4.875
4.880
4.925
4.985
5.075
5.400
5.775
5.690
5.390
5.275
5.285
5.295
5.295
5.290
5.295
5.310
5.290
5.270
5.250
5.260
5.245
5.190
5.135
5.070
5.000
4.915
4.820
4.715
4.660
4.655
4.695
4.730
4.750
4.750
4.725
4.725
4.735
4.775
4.795
4.815
4.820
4.795
4.760
4.755
4.765
4.770
4.755
4.760
4.785
4.795
4.785
4.785
4.795
4.790
4.790
4.775
4.785
4.800
4.790
4.780
4.765
4.770
4.780
4.785
4.770
4.785
4.795
4.775
4.775
4.780
4.785
4.795
4.785
4.815
4.835
4.830
4.830
4.840